ecg,ecg2,ecg3,rrIntervalList
14212.608,11.264,16767.744,0.755
14139.648,10.24,16767.232,1.525
14144.768,7.424,16767.744,2.315
14296.576,6.656,16765.696,3.075
14473.728,6.656,16763.904,3.85
14786.304,6.4,16764.928,4.69
15136.512,6.912,16766.208,5.58
15353.344,9.728,16767.232,6.4
15280.128,12.032,16767.744,7.25
14041.344,7.168,16768.0,8.105
14058.496,8.448,16766.976,8.905000000000001
14107.904,7.168,16766.464,9.65
14131.2,7.936,16766.208
14065.92,8.704,16766.976
14040.32,8.448,16767.488
14049.024,6.912,16766.464
14014.976,6.656,16766.976
14004.224,7.168,16767.744
14026.24,6.912,16766.976
13991.424,6.4,16767.488
14006.272,8.704,16767.744
14115.84,9.984,16765.952
14296.064,8.704,16765.184
14500.096,5.632,16764.16
14766.592,6.656,16766.208
15014.4,8.448,16767.488
14999.296,6.912,16766.208
14765.312,6.912,16765.952
14433.536,6.144,16766.208
14147.584,6.912,16767.232
14109.696,8.96,16765.952
14133.248,8.448,16766.208
14086.912,9.472,16764.16
14050.56,8.448,16765.44
14038.016,8.192,16768.256
14048.256,8.192,16769.024
14056.192,7.68,16769.28
14068.48,7.168,16768.256
14060.032,7.936,16766.976
14049.28,9.472,16765.952
14061.056,9.472,16767.488
14070.272,9.728,16766.976
14075.136,9.216,16765.696
14055.68,8.96,16765.184
14059.52,7.168,16765.696
14087.424,6.656,16766.976
14084.864,10.24,16766.464
14071.808,10.496,16765.696
14049.024,9.984,16767.744
14096.128,10.24,16769.536
14125.312,8.704,16767.744
14068.992,7.424,16767.488
14072.064,8.704,16766.976
14092.544,8.96,16767.232
14095.36,7.68,16767.744
14091.264,5.376,16768.256
14128.64,6.144,16769.536
14149.376,7.936,16768.768
14177.792,7.68,16766.464
14228.48,7.168,16768.0
14224.128,7.424,16767.744
14214.144,9.216,16766.72
14214.656,8.192,16768.256
14243.328,5.12,16769.536
14287.616,5.632,16768.0
14255.872,8.192,16767.232
14215.424,10.24,16768.768
14225.664,9.984,16768.0
14222.848,9.216,16767.744
14181.376,9.216,16765.184
14168.064,12.544,16763.904
14156.544,11.264,16763.904
14129.152,9.728,16764.16
14067.2,7.68,16769.024
14081.792,10.24,16766.72
14083.584,10.24,16766.72
14112.0,8.192,16766.976
14149.12,7.424,16765.696
14071.808,7.936,16765.952
13993.728,8.96,16766.72
13997.056,8.192,16765.696
14067.456,9.472,16763.648
14105.088,10.496,16765.44
14078.464,9.472,16766.976
14030.336,9.216,16766.976
14008.576,9.984,16769.024
14030.08,9.728,16770.56
14075.136,9.984,16769.024
14081.536,8.704,16769.024
14055.68,7.168,16767.488
14078.464,8.448,16765.184
14132.224,9.216,16766.72
14109.44,8.704,16767.232
14107.392,9.728,16765.44
14129.664,8.96,16766.208
14087.168,8.192,16766.976
14087.424,7.168,16766.72
14110.208,5.888,16768.512
14129.664,6.656,16768.256
14155.008,6.912,16766.72
14109.184,5.376,16764.16
14088.704,5.888,16765.952
14135.04,7.936,16767.744
14165.248,8.192,16766.464
14143.744,8.448,16765.696
14136.576,8.192,16767.232
14131.712,8.96,16768.256
14160.64,7.936,16767.232
14161.92,6.912,16768.256
14159.616,6.912,16765.952
14208.256,7.936,16766.208
14189.312,7.936,16766.464
14115.072,6.656,16766.976
14069.504,7.168,16768.512
14082.816,8.704,16768.512
14089.216,8.448,16767.232
14089.728,8.96,16766.976
14060.8,9.728,16768.0
14042.88,9.472,16766.464
14085.12,8.448,16765.184
14102.016,7.936,16766.72
14091.776,7.68,16768.512
14066.432,8.96,16767.744
14067.712,8.96,16767.744
14075.136,7.168,16768.256
14030.592,8.448,16769.28
14027.52,10.752,16767.488
14004.48,11.52,16766.208
13993.472,11.008,16766.72
14082.816,11.52,16765.44
14290.176,9.472,16765.696
14536.704,5.888,16766.72
14751.488,6.656,16769.024
14951.936,8.448,16768.768
14951.68,9.216,16767.488
14673.92,7.936,16767.232
14387.712,7.424,16766.464
14181.376,7.936,16766.976
14148.352,8.192,16766.208
14134.784,8.448,16765.184
14076.672,8.704,16766.72
14050.816,7.936,16766.976
14084.864,5.888,16768.0
14029.568,6.144,16770.048
13966.592,8.96,16766.72
14003.712,7.936,16767.232
14070.784,5.632,16767.488
14094.592,6.912,16764.928
14024.96,7.936,16767.744
13992.96,8.192,16770.048
14030.592,9.216,16768.768
14063.104,11.008,16765.44
14113.024,10.24,16764.16
14143.488,7.424,16764.928
14084.352,6.656,16766.208
14043.904,9.728,16766.72
14051.328,9.984,16767.488
14065.664,7.168,16769.024
14066.176,5.888,16770.048
14087.68,5.888,16766.976
14091.264,6.656,16766.72
14066.176,7.68,16768.256
14081.024,7.936,16768.256
14121.472,6.4,16767.232
14142.464,6.4,16768.0
14168.576,6.4,16769.024
14165.76,6.912,16768.0
14151.936,8.192,16766.464
14143.744,6.656,16768.0
14168.576,6.4,16769.28
14219.776,8.448,16770.304
14222.08,9.472,16769.792
14219.008,6.656,16769.024
14244.352,7.168,16768.512
14236.16,6.4,16768.512
14238.208,6.144,16770.048
14212.608,8.704,16769.536
14170.624,9.216,16767.232
14148.608,8.448,16768.256
14126.08,8.704,16771.328
14109.184,7.424,16771.328
14093.568,8.192,16768.768
14120.192,8.96,16767.488
14068.224,9.728,16766.72
13998.848,9.472,16768.512
14026.24,8.96,16769.024
14056.96,8.192,16768.256
14110.464,5.632,16768.256
14109.696,6.144,16768.0
14047.488,8.704,16767.744
14018.304,7.68,16768.768
14045.696,7.424,16768.0
14069.504,8.704,16768.0
14057.728,8.192,16767.488
14025.728,9.216,16769.536
14008.576,9.728,16768.256
14019.072,8.448,16765.696
14032.128,9.216,16768.512
14088.448,7.936,16769.28
14116.608,6.912,16768.512
14075.648,8.96,16768.0
14091.264,7.168,16767.744
14135.04,7.168,16766.976
14126.336,6.4,16766.976
14075.392,6.144,16764.672
13995.264,7.168,16767.232
14019.584,8.192,16765.952
14047.232,6.656,16766.464
14069.504,6.4,16767.744
14140.672,8.448,16769.536
14127.872,8.448,16768.768
14097.664,11.264,16768.0
14145.024,11.008,16768.768
14169.856,9.216,16769.536
14142.72,8.448,16767.744
14099.712,6.912,16766.464
14144.0,6.656,16766.976
14201.344,6.656,16768.0
14173.184,6.912,16768.512
14146.048,8.448,16768.256
14138.624,10.496,16767.232
14125.568,9.216,16767.232
14140.928,7.168,16767.232
14120.192,7.936,16766.464
14108.416,9.472,16767.744
14077.44,8.96,16768.256
14042.368,6.656,16766.976
14025.984,8.448,16768.768
14047.488,9.728,16769.792
14051.328,7.936,16768.768
14042.88,6.656,16768.256
14063.104,8.448,16768.256
14073.856,8.448,16768.0
14022.144,8.448,16767.232
14006.784,8.96,16767.488
14019.072,7.424,16767.232
14052.608,9.216,16766.976
14072.576,8.96,16766.976
14013.696,8.192,16767.488
13956.608,9.728,16767.744
13967.104,9.728,16767.232
14108.16,9.216,16766.72
14252.288,8.448,16767.232
14475.008,7.68,16768.0
14784.0,6.4,16769.536
14998.784,6.656,16766.976
14989.824,8.704,16767.488
14670.08,9.472,16766.208
14287.104,8.96,16764.416
14057.216,9.472,16766.208
14059.776,9.984,16766.208
14066.176,9.216,16766.208
14028.032,6.144,16766.72
14054.656,6.144,16766.464
14056.192,6.144,16768.256
13995.008,5.888,16767.744
13953.024,7.168,16767.232
13970.944,7.68,16769.28
13987.84,8.704,16766.72
14033.664,9.728,16766.464
14072.32,8.704,16769.024
14047.744,7.936,16770.048
13994.496,6.912,16770.56
14011.904,7.68,16769.024
14075.392,8.96,16768.0
14025.728,7.936,16768.768
13956.352,6.4,16768.512
13968.128,6.144,16766.464
13999.616,6.656,16764.928
14053.376,6.912,16766.72
14092.032,8.448,16768.512
14043.648,7.936,16766.464
14025.728,8.192,16765.44
14054.912,9.728,16763.904
14052.352,10.496,16765.952
14041.344,8.704,16767.232
14061.824,8.192,16766.464
14101.248,5.888,16766.976
14117.632,6.144,16767.232
14141.44,6.656,16768.0
14171.648,8.192,16769.024
14165.248,9.984,16768.256
14171.392,10.496,16767.488
14183.168,10.24,16766.464
14195.2,8.704,16766.464
14243.328,7.68,16767.232
14237.696,8.448,16767.488
14168.576,10.752,16768.512
14117.376,11.008,16768.512
14096.128,9.216,16767.488
14090.496,9.728,16767.744
14094.848,8.96,16766.208
14113.792,8.704,16766.464
14102.784,7.424,16766.464
14072.576,5.888,16764.16
14068.736,6.656,16762.112
14071.04,8.96,16763.648
13989.12,9.216,16766.976
13963.52,8.448,16767.488
14018.56,10.24,16765.184
14007.808,7.424,16767.744
13976.32,6.912,16768.256
13997.824,7.68,16767.744
14026.752,9.216,16766.72
14084.096,10.24,16768.0
14047.232,9.984,16768.768
13992.192,9.728,16768.256
14000.64,9.472,16766.976
14046.464,8.96,16764.416
14034.176,9.216,16765.184
13993.216,9.472,16768.768
14001.152,10.24,16769.536
14013.696,8.96,16767.232
14026.752,7.936,16767.232
14040.32,6.656,16767.744
14049.792,6.656,16767.232
14019.072,7.168,16766.464
14028.032,9.728,16768.768
14028.544,8.96,16770.56
14042.368,8.448,16769.28
14082.304,9.984,16768.512
14084.096,9.728,16766.72
14054.144,9.728,16767.744
14036.736,8.96,16768.768
14065.152,7.936,16768.512
14095.36,5.888,16769.024
14083.072,6.656,16767.488
14061.312,8.192,16766.464
14076.672,9.216,16767.488
14101.504,8.448,16767.744
14072.832,8.448,16766.72
14088.704,9.728,16768.256
14135.552,9.472,16768.0
14142.72,7.68,16765.696
14102.528,8.704,16765.952
14112.256,8.704,16768.256
14146.048,10.24,16766.976
14141.952,9.984,16765.952
14146.048,8.448,16765.952
14176.768,8.96,16766.464
14137.344,7.936,16768.768
14066.176,7.68,16771.072
13983.744,5.376,16771.328
13958.656,5.888,16768.256
13992.704,6.656,16764.928
14013.696,5.376,16764.16
14067.2,8.704,16766.464
14058.24,9.728,16766.976
13985.536,8.192,16766.976
13990.144,6.4,16769.024
14005.504,6.4,16768.0
14026.496,7.168,16766.464
13996.544,6.144,16766.208
13974.272,6.4,16767.744
13936.64,7.936,16767.232
13913.344,9.216,16767.488
13940.224,7.424,16769.024
14073.088,8.192,16771.584
14226.944,9.472,16770.56
14483.712,9.472,16769.792
14762.752,9.728,16770.048
14970.112,9.984,16766.464
15026.432,7.936,16766.464
14753.28,8.704,16768.512
14311.424,9.728,16768.256
14048.768,8.704,16766.208
14073.6,8.704,16765.952
14093.824,8.704,16766.72
14045.184,7.168,16766.464
13964.544,7.936,16765.952
13955.584,8.96,16767.744
13963.008,9.728,16768.512
13955.328,9.472,16767.488
13965.568,8.192,16767.488
14009.344,7.424,16766.976
13994.752,8.704,16767.488
13963.52,7.424,16769.28
13966.336,6.912,16770.304
13955.328,8.704,16769.024
13977.856,8.704,16767.488
14030.848,6.4,16768.512
14038.272,6.656,16770.304
14023.168,7.936,16769.024
14008.064,8.704,16766.976
13994.496,8.192,16767.488
14007.296,7.168,16770.816
14028.288,5.888,16770.304
14030.848,6.4,16768.768
14064.896,7.424,16769.024
14072.576,7.936,16769.024
14046.208,8.704,16768.256
14086.656,9.216,16769.28
14135.04,8.448,16767.488
14140.416,7.936,16767.488
14123.52,6.656,16768.768
14126.848,6.656,16766.976
14142.72,7.68,16768.0
14157.056,7.936,16769.024
14190.592,9.472,16769.28
14195.456,9.728,16767.744
14208.512,10.496,16766.208
14190.336,8.192,16766.208
14163.456,5.632,16766.72
14138.624,7.424,16766.976
14109.44,6.4,16766.464
14088.704,6.4,16768.256
14072.576,7.68,16767.488
14049.28,9.472,16768.0
14080.0,8.704,16768.512
14072.064,7.936,16770.304
14012.416,8.192,16771.072
14030.592,8.448,16770.048
14064.128,7.936,16770.304
14046.464,6.656,16768.256
14029.824,6.4,16766.976
14016.256,8.192,16766.208
14002.688,9.984,16767.488
14054.656,9.472,16768.768
14050.304,7.424,16768.512
13981.952,7.168,16768.0
13956.864,8.96,16767.488
13972.224,8.448,16768.768
14017.024,6.144,16767.232
14037.76,4.608,16767.744
13989.12,6.656,16769.792
13975.04,9.216,16769.024
14017.024,9.472,16766.72
14047.232,9.984,16765.952
14055.168,8.704,16765.44
14034.432,7.936,16768.0
14042.112,8.704,16769.024
14059.52,7.168,16768.768
14072.064,7.68,16768.0
14075.136,6.144,16768.256
14059.264,7.168,16768.0
14069.248,7.168,16766.464
14083.072,6.656,16764.928
14068.48,7.936,16767.488
14025.472,8.704,16768.0
14047.488,7.936,16768.256
14043.392,6.144,16769.792
14075.136,8.448,16766.72
14122.752,8.96,16765.952
14154.752,8.448,16764.928
14149.632,8.448,16764.672
14116.608,6.4,16766.72
14124.288,3.072,16767.488
14155.776,3.584,16767.488
14145.536,6.912,16766.72
14142.464,7.168,16765.44
14161.92,6.144,16764.672
14172.16,5.632,16765.952
14168.064,5.888,16768.256
14148.352,8.448,16768.512
14089.984,8.192,16768.0
14017.536,6.656,16766.976
14011.648,6.656,16767.744
14018.816,5.12,16766.976
14034.176,4.352,16764.672
14060.8,6.912,16764.416
14055.424,9.472,16763.904
14052.096,8.704,16763.904
14076.672,8.96,16765.952
14110.464,7.424,16766.464
14096.896,5.888,16765.184
14108.16,5.376,16766.208
14097.92,7.936,16765.44
14015.232,5.888,16764.672
13966.336,7.68,16765.696
13957.632,8.448,16766.208
13959.424,7.68,16764.16
14038.016,7.168,16766.464
14191.872,6.912,16766.464
14441.984,8.448,16763.904
14713.344,8.96,16765.952
14962.432,7.936,16767.488
15046.4,8.192,16766.208
14864.64,8.448,16763.392
14516.224,7.424,16763.136
14184.192,5.376,16765.952
14108.416,4.864,16767.744
14137.088,8.704,16766.464
14133.248,9.472,16765.184
14114.816,8.704,16765.952
14080.256,7.936,16767.232
14026.24,8.192,16766.464
13993.728,8.448,16765.184
14016.256,8.192,16764.672
14068.224,7.424,16765.44
14071.808,8.96,16766.976
14071.04,9.472,16767.232
14083.072,8.704,16768.0
14097.92,10.496,16766.72
14101.76,12.8,16764.416
14094.592,9.216,16765.184
14098.176,6.656,16765.696
14109.696,8.704,16765.44
14128.896,8.96,16764.928
14140.928,7.936,16765.184
14170.112,5.888,16766.464
14191.872,6.656,16768.512
14170.88,8.192,16767.488
14148.352,5.632,16767.232
14156.8,6.656,16768.0
14167.296,8.704,16768.512
14156.288,8.704,16766.464
14172.416,9.472,16764.928
14193.92,9.728,16763.136
14204.416,9.472,16763.904
14231.04,9.216,16766.72
14236.416,6.912,16769.792
14241.792,8.448,16771.84
14260.224,8.96,16769.792
14280.704,8.96,16766.464
14300.16,9.472,16766.464
14294.784,10.752,16765.696
14307.84,11.264,16763.392
14293.76,9.472,16764.928
14226.432,7.424,16765.696
14195.456,7.424,16765.952
14215.424,8.96,16764.416
14224.128,9.216,16765.44
14183.68,9.216,16770.048
14141.952,8.96,16770.048
14092.8,8.704,16769.792
14071.552,7.424,16770.816
14082.048,7.936,16768.0
14100.992,10.752,16765.952
14077.696,12.544,16768.512
14081.536,8.704,16769.28
14077.184,6.144,16767.232
14086.656,8.704,16768.0
14110.72,9.984,16769.792
14106.112,8.96,16766.976
14078.208,9.728,16768.256
14062.336,10.752,16768.0
14078.464,8.192,16765.952
14117.12,7.424,16766.464
14119.68,7.424,16768.512
14113.28,7.168,16766.208
14128.896,7.68,16765.696
14147.84,7.424,16765.952
14176.0,5.632,16766.72
14167.04,5.376,16766.208
14167.04,7.68,16767.232
14172.672,10.496,16767.744
14138.88,9.984,16767.488
14155.776,8.704,16767.744
14196.224,7.936,16767.744
14189.824,8.96,16767.744
14148.096,9.216,16766.208
14115.328,9.216,16766.208
14115.84,9.216,16766.208
14125.312,8.704,16763.904
14172.928,7.936,16762.88
14233.856,7.168,16764.672
14240.256,6.4,16766.72
14234.88,7.936,16766.976
14237.44,9.216,16766.976
14207.232,9.472,16767.232
14219.52,8.192,16767.488
14255.616,5.12,16768.256
14290.688,6.144,16768.0
14322.432,9.728,16767.232
14344.448,10.496,16767.744
14343.424,8.448,16769.024
14285.824,6.4,16768.512
14322.944,6.912,16766.464
14383.872,8.704,16766.976
14339.328,7.424,16767.232
14230.272,7.424,16768.768
14192.64,8.96,16768.256
14171.392,8.96,16766.976
14162.176,9.984,16766.464
14196.736,9.984,16767.232
14249.984,8.448,16768.512
14238.464,7.68,16767.488
14226.432,5.632,16768.256
14200.832,6.4,16766.976
14204.16,8.448,16765.696
14211.84,8.704,16766.208
14216.448,7.936,16764.928
14222.08,6.912,16763.648
14240.256,5.888,16765.696
14179.84,5.632,16766.976
14275.84,7.424,16766.72
14396.928,8.448,16767.232
14601.216,6.912,16766.208
14887.68,6.656,16766.976
15098.88,7.168,16766.464
15098.112,7.424,16768.256
14842.88,6.144,16771.584
14550.272,8.704,16772.096
14336.512,11.52,16769.024
14296.32,9.216,16765.696
14333.184,9.216,16763.904
14297.088,7.68,16766.72
14251.776,6.144,16765.696
14234.88,6.4,16766.976
14226.432,6.656,16768.512
14225.408,5.632,16767.744
14251.776,7.168,16767.488
14281.984,7.424,16767.232
14284.544,7.68,16766.72
14253.824,7.936,16767.744
14239.232,7.68,16768.256
14235.648,8.448,16766.976
14245.12,7.936,16765.952
14258.176,5.632,16769.024
14276.864,5.888,16768.768
14270.976,9.216,16766.464
14239.488,9.472,16765.952
14258.432,7.936,16766.72
14273.024,6.656,16768.0
14295.808,4.352,16767.744
14291.968,5.376,16767.232
14287.872,7.168,16765.44
14317.056,7.68,16765.184
14291.456,8.192,16766.72
14284.544,8.192,16766.464
14317.568,7.424,16765.696
14338.304,8.192,16766.208
14337.28,11.008,16766.72
14368.512,8.96,16769.024
14398.208,5.376,16768.256
14409.216,6.4,16767.744
14425.088,8.704,16768.0
14433.024,9.984,16768.512
14415.104,10.496,16768.256
14409.984,9.728,16769.024
14426.624,6.144,16767.488
14408.704,6.912,16768.512
14390.528,6.912,16766.976
14371.84,7.424,16767.744
14344.704,7.168,16770.048
14317.824,6.912,16769.024
14310.912,7.424,16768.256
14301.44,8.192,16769.024
14293.248,7.936,16767.744
14291.2,8.448,16768.0
14299.136,11.264,16765.952
14295.04,12.032,16764.672
14270.976,11.008,16766.464
14228.736,11.264,16766.208
14231.296,10.752,16765.184
14265.088,8.704,16766.464
14259.712,9.728,16766.464
14243.584,8.448,16765.696
14229.76,7.168,16766.72
14239.232,7.168,16768.256
14246.4,9.984,16765.952
14249.728,11.264,16764.928
14252.544,9.216,16765.696
14238.72,8.448,16765.696
14224.128,8.704,16768.0
14229.248,7.936,16770.048
14247.68,8.704,16768.512
14239.488,9.472,16767.232
14217.472,9.472,16767.232
14235.136,9.984,16767.744
14273.28,9.984,16768.512
14273.792,10.752,16767.744
14262.528,9.728,16765.44
14247.936,7.424,16767.232
14245.888,7.936,16768.0
14273.792,6.912,16767.744
14310.912,8.192,16768.512
14307.072,8.448,16767.488
14295.552,5.376,16769.024
14296.064,5.632,16768.512
14284.288,8.96,16768.512
14273.792,9.216,16768.768
14273.28,9.984,16767.744
14299.136,7.936,16768.0
14337.024,6.144,16767.744
14330.88,8.448,16767.744
14329.088,9.984,16768.256
14359.296,8.448,16767.744
14359.296,7.168,16766.208
14341.12,7.168,16765.696
14344.704,7.936,16766.208
14330.624,7.424,16766.976
14300.672,7.936,16766.976
14257.152,7.936,16766.72
14244.608,7.68,16766.72
14249.216,7.68,16767.488
14238.72,6.4,16766.72
14227.712,6.144,16764.672
14245.12,5.376,16763.904
14248.96,8.192,16767.232
14216.448,9.216,16769.536
14226.688,8.448,16771.072
14214.4,7.424,16768.512
14182.656,6.144,16767.488
14187.264,6.144,16765.696
14177.024,3.84,16763.392
14154.24,4.096,16765.696
14221.312,5.376,16766.464
14372.096,6.4,16767.232
14619.392,8.192,16766.976
14926.08,7.168,16768.768
15156.736,6.656,16768.512
15174.144,7.168,16767.232
14884.864,6.656,16768.0
14562.816,6.144,16766.464
14347.776,4.096,16764.416
14285.824,4.096,16766.464
14263.552,6.656,16767.488
14213.888,6.4,16767.744
14189.824,6.4,16768.512
14198.272,6.4,16768.512
14214.656,5.888,16769.536
14203.648,6.144,16767.488
14201.856,8.448,16766.208
14224.64,6.144,16766.976
14189.312,4.352,16768.512
14221.056,5.888,16767.488
14235.392,7.936,16765.44
14201.856,8.192,16766.208
14155.776,6.656,16767.232
14143.744,7.168,16768.0
14157.824,8.192,16769.28
14171.904,7.424,16769.024
14194.688,6.656,16767.232
14187.776,8.192,16767.232
14198.784,9.984,16766.72
14227.2,11.264,16766.464
14229.248,9.216,16769.792
14241.28,6.656,16769.024
14255.36,6.144,16769.792
14255.872,7.68,16768.512
14268.928,6.656,16766.72
14267.648,6.656,16768.768
14282.496,8.192,16767.232
14309.632,6.656,16766.976
14340.352,6.912,16765.44
14354.432,8.448,16765.696
14351.36,8.448,16769.536
14375.936,7.424,16770.304
14393.088,6.4,16769.28
14397.184,6.912,16769.792
14377.472,7.68,16769.28
14386.944,8.448,16767.488
14396.928,6.144,16765.44
14367.232,5.888,16764.928
14346.24,6.656,16766.976
14319.104,8.448,16767.232
14301.184,9.472,16765.44
14297.088,7.936,16765.952
14279.68,7.424,16766.976
14273.792,6.656,16765.952
14260.992,6.144,16768.256
14240.768,7.424,16768.768
14235.648,8.448,16767.744
14238.464,9.728,16769.536
14233.6,10.752,16769.024
14204.16,10.24,16769.536
14210.56,8.96,16769.792
14231.04,8.96,16767.488
14240.768,7.424,16767.232
14247.68,8.192,16767.488
14253.312,9.216,16766.976
14239.744,9.216,16768.0
14242.816,8.96,16768.512
14247.68,7.936,16768.768
14255.104,7.424,16770.304
14267.904,7.936,16768.512
14269.952,6.656,16765.952
14264.32,6.4,16765.184
14255.872,6.912,16764.16
14254.848,6.912,16764.416
14256.384,7.936,16765.44
14258.688,8.448,16767.232
14274.816,7.68,16768.768
14276.864,6.912,16768.512
14288.384,6.912,16768.256
14287.104,7.424,16766.976
14267.136,6.656,16765.696
14279.936,6.4,16767.488
14315.52,7.168,16768.768
14328.832,7.168,16771.072
14355.968,7.424,16770.816
14354.176,9.216,16769.28
14335.744,8.96,16767.744
14346.752,8.96,16768.512
14364.672,7.936,16769.024
14363.392,6.912,16770.304
14378.496,7.168,16771.584
14361.088,7.168,16767.488
14356.992,7.68,16765.952
14377.728,8.704,16766.72
14387.2,8.96,16766.464
14390.016,10.496,16766.976
14364.16,8.448,16767.488
14335.744,7.68,16769.024
14318.592,8.96,16769.792
14292.736,8.704,16769.792
14272.512,8.192,16769.024
14268.16,9.216,16768.256
14283.52,8.96,16767.744
14295.808,8.704,16767.744
14290.176,7.424,16768.256
14294.528,6.656,16769.792
14265.344,6.912,16769.792
14267.648,5.12,16768.0
14277.888,5.632,16766.976
14269.952,8.448,16767.744
14275.328,7.424,16768.512
14247.168,7.424,16768.256
14181.632,7.936,16770.048
14200.576,8.448,16768.768
14331.904,6.912,16766.72
14491.136,6.912,16766.72
14767.616,8.192,16768.256
15051.52,8.96,16766.72
15247.872,6.912,16765.696
15208.192,8.192,16766.464
14878.976,9.216,16767.488
14534.144,6.912,16767.232
14369.024,7.424,16765.44
14372.096,9.472,16766.208
14320.128,9.216,16768.0
14236.16,9.216,16767.232
14215.936,8.704,16766.72
14208.0,8.704,16766.976
14201.088,9.472,16766.464
14217.216,8.96,16767.488
14241.536,7.936,16769.28
14238.976,7.168,16770.048
14236.416,6.912,16768.768
14247.68,5.12,16769.536
14241.536,4.096,16769.792
14251.264,6.912,16767.488
14273.024,9.728,16765.44
14272.512,8.704,16766.72
14269.696,8.192,16767.232
14272.768,8.192,16765.696
14286.848,10.752,16765.184
14287.104,10.496,16765.696
14293.76,9.216,16767.488
14301.952,9.216,16768.256
14302.464,7.68,16767.744
14288.384,7.936,16767.232
14307.84,8.96,16768.512
14323.712,9.216,16769.536
14344.192,9.472,16767.488
14368.512,9.216,16767.744
14373.888,7.68,16768.512
14380.288,6.912,16770.56
14394.624,7.424,16769.792
14427.648,7.168,16769.024
14442.752,11.52,16768.768
14443.776,12.032,16768.512
14452.48,10.24,16770.304
14439.936,9.216,16771.072
14436.608,9.984,16770.304
14465.792,9.216,16766.976
14451.456,9.728,16763.904
14428.416,9.728,16766.72
14414.848,8.704,16769.536
14389.248,8.704,16767.744
14366.976,10.752,16767.232
14339.84,9.984,16766.464
14333.184,8.704,16766.208
14316.544,7.168,16767.488
14307.584,8.192,16766.976
14315.776,8.704,16767.744
14311.68,7.424,16767.744
14280.704,7.168,16767.744
14285.568,6.144,16769.28
14309.632,7.424,16768.0
14304.512,8.96,16767.232
14286.08,7.68,16766.976
14274.304,8.704,16767.744
14284.288,7.936,16767.744
14300.672,8.704,16766.72
14297.344,8.704,16768.768
14293.76,9.216,16768.256
14294.016,7.168,16765.184
14299.904,6.4,16764.672
14315.776,9.216,16766.208
14300.672,8.96,16767.488
14312.448,8.96,16767.232
14330.368,8.704,16767.232
14330.88,8.448,16766.72
14321.408,6.4,16768.256
14316.032,6.4,16768.0
14319.872,7.424,16764.16
14320.896,8.192,16765.184
14302.208,6.656,16765.696
14312.96,5.888,16767.232
14343.424,7.68,16769.024
14383.36,8.448,16766.208
14390.528,7.936,16766.208
14386.688,6.912,16768.512
14377.728,6.912,16769.792
14364.16,8.192,16766.976
14376.192,9.216,16764.672
14398.976,9.472,16765.44
14417.152,8.704,16765.696
14418.176,6.656,16766.976
14404.608,5.12,16768.0
14399.744,6.144,16768.0
14415.872,8.192,16768.256
14435.84,6.4,16766.976
14426.88,5.632,16766.464
14393.344,8.448,16766.976
14350.592,9.984,16766.208
14308.352,7.68,16767.744
14272.512,5.12,16766.976
14270.72,7.936,16765.696
14278.144,9.984,16764.672
14288.384,8.96,16766.976
14292.48,7.424,16768.512
14282.24,6.912,16768.256
14276.864,6.4,16766.72
14278.656,6.656,16768.256
14273.792,9.216,16768.256
14255.616,9.984,16766.72
14248.448,8.448,16767.744
14263.296,7.168,16766.976
14226.944,7.68,16765.952
14200.832,8.96,16766.72
14271.232,6.912,16764.416
14405.376,4.864,16764.416
14616.32,6.912,16764.416
14946.56,7.68,16765.952
15222.272,6.656,16765.696
15338.752,8.704,16766.72
15133.44,10.752,16766.464
14716.928,10.24,16766.72
14378.496,6.912,16766.464
14288.896,5.888,16765.44
14324.48,8.704,16766.72
14309.12,11.008,16768.768
14265.6,9.984,16768.512
14233.344,7.68,16767.232
14232.064,8.448,16769.024
14250.752,10.496,16768.512
14244.608,10.24,16767.488
14231.296,8.192,16766.464
14237.696,8.448,16765.952
14251.776,9.984,16768.0
14272.256,10.24,16769.792
14279.424,7.936,16769.024
14260.992,7.936,16769.024
14274.816,8.96,16769.024
14292.992,8.448,16770.304
14298.112,6.4,16769.792
14302.72,7.936,16769.792
14302.72,9.984,16769.536
14282.496,9.472,16766.464
14287.104,8.192,16767.232
14285.824,6.656,16766.976
14296.064,7.68,16768.768
14337.28,8.704,16768.512
14356.736,6.912,16765.952
14348.8,5.632,16765.184
14353.664,7.936,16766.976
14373.12,7.68,16766.72
14391.808,7.424,16765.184
14409.216,8.448,16765.696
14424.832,5.632,16765.184
14462.72,7.936,16765.44
14488.064,9.216,16766.72
14508.8,9.472,16768.0
14516.992,8.192,16767.488
14507.264,9.216,16767.744
14502.144,8.704,16768.256
14479.36,6.912,16766.72
14467.328,5.632,16767.744
14446.592,8.448,16766.976
14420.48,8.96,16765.44
14387.456,7.424,16768.256
14352.896,7.424,16768.512
14349.056,6.144,16766.72
14369.792,6.144,16766.976
14369.28,4.608,16765.952
14342.656,5.12,16765.44
14332.16,6.4,16765.44
14317.824,5.888,16765.184
14310.912,6.912,16764.416
14347.008,9.472,16765.44
14394.112,8.96,16766.464
14392.832,8.192,16766.208
14343.936,8.192,16765.952
14320.64,7.936,16765.696
14369.792,8.96,16766.976
14372.096,9.216,16768.256
14329.088,9.472,16768.512
14337.536,7.936,16766.72
14310.144,8.192,16766.72
14322.432,7.68,16768.0
14355.712,6.656,16768.256
14353.92,6.912,16770.048
14387.968,8.448,16768.768
14380.544,7.936,16767.488
14372.352,7.936,16768.256
14364.672,9.216,16765.184
14405.888,9.216,16764.416
14441.216,7.168,16767.488
14440.96,6.144,16769.28
14468.352,6.912,16767.488
14489.088,9.216,16768.0
14458.112,8.192,16767.488
14425.088,5.888,16765.696
14433.024,6.656,16765.952
14452.224,8.448,16768.512
14468.096,8.448,16768.0
14499.584,8.192,16766.464
14503.424,7.68,16767.744
14494.464,7.936,16769.536
14464.0,8.448,16769.024
14421.76,9.984,16766.72
14390.528,9.216,16766.208
14361.856,7.424,16767.488
14373.376,8.448,16767.744
14380.8,7.68,16766.72
14373.12,5.632,16766.464
14368.768,7.68,16765.696
14417.408,8.704,16767.488
14447.872,6.912,16767.232
14423.552,6.4,16765.952
14401.536,7.936,16768.0
14412.032,11.008,16767.744
14396.16,11.264,16767.232
14394.112,9.472,16768.768
14381.568,7.936,16769.28
14356.224,7.936,16768.512
14367.232,7.424,16766.976
14442.496,6.4,16764.928
14533.888,8.448,16765.696
14669.312,9.472,16765.44
14912.0,9.216,16765.952
15185.664,7.424,16767.744
15334.144,6.144,16768.512
15173.12,7.936,16768.0
14582.016,7.424,16767.232
14443.008,5.632,16766.464
14440.448,7.424,16768.768
14453.248,8.96,16769.28
14420.736,8.192,16768.0
14422.272,8.192,16765.696
14386.176,9.472,16765.696
14372.096,7.936,16765.44
14391.808,4.864,16766.208
14365.696,4.864,16768.0
14381.568,7.424,16766.208
14428.672,8.704,16766.464
14414.592,7.424,16766.464
14371.328,6.912,16767.488
14341.376,8.448,16766.976
14354.944,8.704,16765.44
14396.16,8.96,16764.672
14352.896,8.448,16765.184
14344.192,8.704,16767.488
14369.28,7.936,16765.952
14376.192,6.912,16765.44
14400.768,7.68,16765.952
14435.072,8.704,16766.72
14443.776,8.704,16768.256
14437.888,9.984,16766.976
14453.76,8.704,16766.208
14467.84,7.168,16766.208
14443.776,7.68,16767.488
14449.408,7.168,16768.0
14452.224,8.704,16769.28
14496.512,8.448,16768.512
14554.368,7.68,16766.976
14586.624,10.496,16765.952
14570.24,11.52,16766.72
14599.936,11.52,16768.0
14621.696,7.68,16768.0
14560.0,6.4,16768.512
14490.88,8.192,16767.488
14504.192,8.448,16765.952
14567.936,6.912,16767.488
14559.232,8.704,16769.28
14445.568,9.984,16766.72
14369.536,8.448,16766.208
14409.984,7.168,16767.232
14473.216,7.936,16766.72
14461.184,9.472,16766.208
14407.424,9.728,16765.44
14366.208,7.68,16765.44
14395.392,7.424,16766.976
14416.896,7.424,16769.792
14337.536,8.704,16770.56
14310.4,7.68,16768.512
14335.232,5.632,16765.952
14337.28,6.912,16765.184
14277.632,9.216,16765.952
14241.792,11.008,16764.16
14314.496,9.216,16766.464
14353.664,7.424,16769.28
14321.664,7.68,16768.256
14315.008,6.912,16769.792
14304.768,7.168,16771.072
14270.208,7.68,16769.28
14268.416,7.936,16769.024
14306.56,8.704,16767.744
14331.392,9.216,16766.208
14330.112,10.496,16766.208
14366.464,8.96,16767.232
14399.488,7.168,16767.488
14389.504,8.448,16765.696
14360.064,8.704,16764.416
14327.808,7.936,16766.72
14305.024,9.216,16768.256
14322.432,9.984,16768.256
14323.2,8.704,16766.976
14337.536,8.96,16765.952
14459.392,5.376,16765.696
14427.136,3.584,16764.416
14366.72,5.632,16765.44
14378.24,8.192,16764.928
14354.176,10.24,16765.44
14362.112,10.24,16767.488
14365.184,9.472,16769.536
14327.04,8.192,16767.744
14300.672,6.912,16766.208
14249.216,6.144,16765.184
14248.192,5.888,16766.72
14276.608,7.168,16767.232
14254.336,9.728,16766.72
14184.192,8.448,16767.744
14110.976,7.936,16767.488
14165.504,7.68,16767.488
14221.568,7.936,16767.232
14230.272,6.912,16768.512
14202.88,7.936,16769.024
14177.792,8.96,16767.744
14190.592,8.96,16767.744
14212.864,8.704,16769.792
14178.56,8.704,16767.744
14108.672,7.168,16768.512
14078.976,8.448,16769.28
14084.608,9.984,16767.232
14205.696,8.448,16764.672
14382.848,6.656,16764.928
14611.2,7.424,16766.72
14923.776,6.4,16768.512
15158.272,9.216,16770.56
15202.816,9.728,16768.768
14891.008,5.376,16768.0
14511.872,4.352,16769.024
14251.264,6.144,16768.768
14189.824,7.424,16769.024
14208.768,8.192,16770.048
14221.056,7.168,16769.536
14194.944,5.888,16766.976
14095.616,5.888,16766.72
14044.16,9.216,16767.488
14134.016,8.704,16769.536
14170.368,6.656,16771.072
14120.96,8.192,16770.304
14098.688,8.96,16770.816
14086.4,8.448,16770.048
14120.448,6.656,16768.0
14164.736,5.632,16767.232
14153.216,7.68,16768.512
14143.744,8.192,16769.536
14150.144,7.936,16769.792
14224.384,7.168,16769.28
14268.416,3.584,16768.256
14253.056,5.12,16766.72
14251.008,6.656,16766.464
14209.024,7.936,16768.256
14159.872,8.192,16766.72
14149.632,7.936,16766.72
14229.248,9.216,16770.56
14305.28,10.752,16771.328
14275.328,8.704,16770.304
14207.744,7.936,16768.0
14173.184,8.704,16766.72
14237.952,7.936,16766.208
14327.296,8.704,16766.72
14343.68,10.24,16766.208
14301.952,12.288,16767.744
14307.84,11.264,16765.184
14378.752,12.032,16764.16
14408.96,11.264,16765.44
14391.808,9.472,16765.44
14406.912,8.96,16766.208
14391.296,7.68,16767.744
14332.416,8.96,16769.792
14297.344,9.984,16769.024
14295.296,8.96,16769.536
14269.44,7.424,16770.56
14254.592,5.632,16769.792
14246.656,6.912,16768.512
14256.384,7.424,16769.024
14257.152,7.936,16768.256
14216.448,6.912,16766.976
14231.296,7.168,16767.232
14190.336,8.448,16768.256
14144.512,8.704,16768.512
14162.176,7.68,16768.512
14160.896,8.448,16768.0
14160.384,7.168,16768.0
14163.712,7.168,16768.0
14154.496,9.472,16767.744
14169.6,9.216,16767.232
14219.52,7.168,16766.208
14207.488,5.888,16766.72
14156.8,7.424,16767.232
14172.416,8.448,16768.768
14210.304,8.448,16768.768
14223.616,7.424,16768.768
14273.024,5.632,16767.488
14262.272,6.656,16765.184
14250.752,8.704,16764.672
14230.016,9.216,16765.44
14214.656,8.704,16768.256
14249.472,6.4,16765.952
14283.776,5.888,16766.72
14302.464,6.144,16766.72
14280.448,6.912,16765.696
14232.832,7.424,16766.976
14227.968,8.448,16766.464
14288.384,10.496,16767.232
14313.216,11.776,16768.768
14307.328,9.728,16766.72
14275.328,8.448,16764.16
14268.416,8.96,16763.904
14256.896,8.704,16766.208
14251.776,7.936,16767.232
14245.632,5.888,16768.768
14242.048,6.4,16768.512
14244.864,7.68,16768.256
14203.136,7.936,16768.768
14175.488,8.704,16769.024
14216.448,9.216,16766.976
14193.664,7.68,16765.952
14190.336,8.448,16769.792
14204.672,8.96,16769.024
14203.136,8.448,16766.464
14159.616,6.912,16765.44
14160.384,7.168,16767.232
14195.968,6.656,16768.256
14197.504,8.192,16765.696
14186.24,7.68,16765.952
14131.968,7.424,16768.256
14130.944,9.984,16769.536
14150.4,10.496,16769.024
14203.136,10.24,16766.976
14364.928,8.192,16765.696
14659.072,5.632,16765.696
14948.352,7.168,16765.952
15144.96,9.472,16768.0
15108.352,12.032,16770.304
14807.296,10.752,16769.536
14467.328,8.96,16769.024
14233.6,8.704,16769.024
14238.72,5.12,16767.232
14268.416,6.4,16767.232
14158.848,9.472,16770.304
14104.576,9.216,16769.536
14140.928,7.424,16770.304
14159.616,6.656,16769.792
14160.64,6.144,16766.208
14144.256,6.4,16765.44
14151.424,6.656,16768.0
14120.192,8.192,16769.536
14104.832,7.424,16769.024
14139.904,7.424,16767.232
14181.888,8.192,16766.208
14155.008,8.448,16766.976
14125.056,7.68,16768.0
14117.376,7.936,16767.744
14153.984,6.912,16769.024
14151.936,7.68,16770.048
14159.36,10.24,16769.024
14174.976,8.448,16768.256
14174.72,8.192,16768.256
14172.672,9.728,16767.744
14182.144,9.216,16765.44
14206.464,9.472,16763.904
14217.728,10.496,16765.44
14237.184,9.728,16767.744
14193.664,9.216,16767.232
14191.616,9.472,16767.232
14254.592,9.472,16766.464
14287.616,8.96,16765.44
14323.456,9.728,16766.72
14379.776,7.168,16767.488
14352.128,6.144,16767.232
14295.04,8.96,16768.512
14315.264,7.936,16766.976
14324.992,6.4,16767.744
14312.704,7.424,16767.744
14310.4,9.728,16766.208
14319.616,10.752,16764.928
14262.016,10.496,16764.416
14209.024,8.96,16765.696
14237.952,7.424,16768.0
14237.952,8.704,16770.816
14223.104,10.24,16768.768
14215.168,11.008,16766.208
14196.736,8.448,16766.464
14160.64,6.912,16767.488
14155.776,7.68,16766.464
14147.584,7.68,16766.72
14158.336,7.68,16768.512
14162.688,7.936,16768.0
14153.472,8.192,16768.0
14139.648,8.704,16766.976
14121.984,11.008,16765.696
14107.904,11.008,16765.44
14149.376,10.496,16764.672
14155.776,10.24,16764.16
14137.6,9.472,16766.464
14153.728,10.24,16766.208
14188.032,9.984,16765.696
14188.032,7.168,16765.696
14155.008,5.632,16764.928
14191.872,6.4,16765.952
14186.496,7.68,16767.744
14165.504,8.704,16768.256
14180.096,8.96,16766.976
14167.296,8.704,16768.0
14193.152,9.472,16766.208
14204.928,9.216,16766.208
14215.68,9.984,16766.72
14238.208,8.704,16766.464
14256.896,9.472,16766.464
14288.384,8.96,16767.232
14218.496,5.888,16767.488
14170.368,5.376,16765.696
14231.552,7.936,16766.208
14312.192,7.68,16767.232
14302.464,7.424,16766.208
14268.928,9.984,16766.72
14254.08,9.216,16767.488
14245.12,10.752,16769.024
14273.792,10.24,16770.304
14253.312,9.472,16768.512
14218.496,8.704,16764.928
14187.52,8.192,16764.16
14145.28,8.704,16765.696
14154.24,11.52,16766.208
14180.864,10.752,16766.976
14180.608,9.984,16767.232
14184.448,8.704,16766.464
14166.528,7.68,16765.696
14158.08,6.656,16764.416
14185.984,9.728,16768.0
14165.76,7.68,16766.72
14150.4,8.448,16766.976
14146.048,9.472,16768.512
14146.304,8.448,16769.28
14141.44,8.192,16769.28
14204.928,7.68,16767.744
14322.176,6.4,16768.0
14534.912,6.912,16767.744
14832.128,7.68,16766.208
15129.088,8.448,16767.488
15251.712,8.96,16767.744
15021.056,6.912,16766.976
14621.44,7.424,16765.184
14308.096,7.68,16766.208
14213.376,4.352,16767.488
14256.384,7.424,16766.72
14243.84,9.216,16767.488
14223.104,8.96,16767.488
14220.032,8.96,16764.928
14182.912,7.168,16765.696
14153.216,6.4,16768.256
14145.792,5.888,16768.0
14174.976,6.656,16766.72
14204.16,9.216,16766.208
14215.936,9.728,16765.184
14199.552,9.984,16765.952
14187.264,8.448,16767.488
14208.512,8.192,16767.232
14220.8,9.728,16768.768
14239.488,11.008,16768.512
14268.416,11.264,16766.208
14254.592,10.496,16766.72
14177.792,8.448,16765.952
14181.632,8.448,16765.44
14240.0,7.936,16766.976
14237.184,8.192,16766.72
14213.376,6.656,16765.44
14236.672,5.12,16767.744
14282.496,6.656,16768.0
14289.92,7.936,16766.464
14253.568,9.216,16767.232
14289.152,9.472,16766.464
14353.664,9.728,16768.768
14366.464,9.728,16770.048
14385.152,8.448,16769.024
14397.184,7.424,16768.512
14405.376,7.68,16768.0
14428.928,6.4,16770.048
14475.52,5.12,16770.304
14487.552,6.4,16768.256
14466.048,9.472,16766.72
14447.616,8.192,16767.488
14421.248,5.888,16768.0
14358.016,6.4,16768.768
14325.248,7.936,16767.232
14320.896,8.448,16764.672
14315.776,8.448,16765.184
14338.048,8.192,16765.184
14362.88,7.168,16764.928
14325.248,7.68,16767.744
14265.088,8.448,16767.488
14282.496,7.936,16764.928
14289.92,7.168,16766.976
14271.488,5.632,16766.72
14237.696,5.376,16767.232
14262.272,6.144,16768.512
14322.176,6.912,16769.28
14343.68,8.448,16769.024
14321.92,10.496,16768.512
14296.576,8.704,16768.512
14303.232,7.424,16767.488
14284.8,8.96,16768.0
14283.008,7.424,16767.232
14319.104,6.912,16767.232
14294.528,7.936,16768.0
14285.312,8.96,16768.0
14304.512,10.752,16765.696
14298.368,10.496,16766.464
14293.504,9.216,16768.0
14327.552,9.728,16767.488
14321.408,8.448,16765.184
14330.88,7.936,16765.952
14351.104,8.448,16765.44
14389.248,8.448,16764.416
14414.848,6.912,16765.184
14396.416,9.728,16768.256
14392.832,11.264,16768.256
14377.472,7.68,16768.768
14350.592,8.448,16768.0
14378.496,8.448,16768.0
14418.944,6.912,16768.768
14448.128,6.4,16768.256
14420.224,6.656,16767.744
14386.944,6.144,16768.512
14386.176,8.96,16768.256
14377.984,9.728,16766.208
14417.92,7.168,16766.208
14435.328,5.376,16766.72
14381.824,5.888,16767.232
14295.808,7.68,16769.28
14309.888,8.96,16767.488
14328.32,7.68,16766.72
14325.504,6.656,16766.208
14311.424,5.888,16767.232
14298.624,4.608,16767.232
14368.0,4.608,16767.232
14360.32,6.4,16769.024
14321.92,7.424,16769.792
14300.16,7.424,16768.0
14300.672,8.704,16768.0
14302.976,8.704,16769.536
14327.04,9.472,16768.512
14374.144,9.472,16767.232
14321.92,8.192,16767.232
14360.064,8.192,16766.464
14511.872,9.216,16766.72
14723.84,8.192,16766.72
15021.568,6.656,16767.232
15271.424,6.144,16768.0
15262.72,6.656,16769.792
14979.328,7.936,16768.256
14705.92,7.168,16768.256
14480.896,5.632,16768.0
14389.504,6.656,16766.464
14394.368,6.4,16766.464
14355.968,6.912,16767.232
14331.392,6.4,16767.488
14321.664,5.632,16767.488
14339.072,6.4,16768.768
14361.088,6.912,16770.56
14381.568,9.216,16768.512
14360.576,9.216,16769.792
14302.976,8.192,16769.536
14313.984,8.704,16767.488
14342.144,8.96,16766.72
14328.832,9.216,16767.232
14324.992,8.448,16769.024
14316.8,10.24,16768.768
14349.056,9.472,16767.488
14392.064,8.704,16769.536
14375.424,9.984,16770.816
14392.32,10.24,16769.536
14414.592,9.472,16767.232
14374.4,8.704,16767.232
14307.328,8.192,16766.72
14373.376,7.424,16768.512
14444.544,7.168,16769.536
14475.52,8.192,16768.512
14441.984,8.704,16767.232
14431.488,7.936,16769.024
14478.592,7.424,16769.024
14522.368,6.4,16767.488
14525.44,7.168,16768.0
14516.224,8.704,16769.28
14517.248,7.936,16765.952
14509.824,6.656,16765.44
14506.24,6.144,16765.952
14534.144,6.656,16765.952
14527.232,7.168,16764.928
14542.336,6.144,16765.184
14558.976,5.376,16763.392
14534.4,6.4,16766.208
14529.024,8.704,16769.792
14488.832,9.984,16768.0
14460.16,7.936,16765.44
14434.304,6.656,16765.184
14365.952,7.168,16766.208
14343.68,7.168,16766.464
14363.904,6.4,16766.72
14385.92,7.168,16767.488
14359.04,6.912,16766.72
14365.44,5.888,16765.44
14379.008,6.656,16768.0
14376.448,6.144,16768.512
14364.16,6.4,16767.488
14359.552,7.936,16765.44
14354.944,10.24,16765.44
14359.296,9.728,16765.952
14390.528,7.68,16767.488
14371.84,6.144,16766.464
14360.832,7.68,16766.72
14368.256,9.216,16767.232
14376.704,9.728,16767.488
14369.536,8.704,16768.0
14353.152,6.912,16765.952
14355.456,8.448,16765.44
14341.632,8.704,16766.464
14320.128,6.144,16766.464
14389.504,6.4,16766.208
14443.52,7.68,16768.0
14414.592,7.424,16768.256
14386.432,6.912,16765.952
14385.92,7.424,16765.696
14401.792,7.424,16767.488
14466.048,6.656,16768.256
14444.544,7.68,16766.976
14394.624,9.984,16766.72
14405.376,9.472,16766.464
14452.224,8.192,16766.464
14456.32,10.24,16765.696
14415.872,8.448,16766.464
14396.672,5.632,16766.976
14432.256,5.12,16764.928
14501.12,6.4,16765.952
14543.872,7.68,16768.0
14489.6,8.96,16768.768
14421.504,9.984,16769.792
14422.528,10.24,16768.768
14482.688,9.216,16767.232
14472.448,7.936,16769.792
14441.984,6.4,16768.256
14421.248,7.168,16766.976
14400.512,7.936,16768.0
14392.832,7.68,16767.744
14411.008,6.4,16769.024
14404.864,8.448,16769.28
14390.016,10.24,16768.0
14395.648,8.448,16767.744
14379.008,5.12,16768.768
14365.44,4.352,16769.024
14347.52,5.376,16767.488
14323.968,6.656,16765.696
14335.232,7.936,16765.696
14334.72,8.448,16766.208
14313.216,6.656,16765.696
14270.464,7.424,16765.184
14251.264,7.424,16767.232
14321.664,5.888,16768.256
14467.84,6.144,16768.256
14638.336,6.4,16768.768
14855.168,5.632,16769.28
15103.488,7.424,16769.024
15344.64,6.912,16769.536
15364.864,5.12,16768.0
15050.24,5.12,16767.488
14659.584,9.472,16769.024
14396.16,12.288,16769.024
14372.096,11.776,16769.024
14410.24,9.728,16767.232
14357.248,8.448,16766.976
14305.28,8.96,16768.512
14313.728,7.936,16766.464
14327.04,8.448,16767.488
14354.944,9.216,16770.816
14379.264,6.656,16770.304
14392.576,6.4,16769.792
14403.584,7.424,16769.024
14373.888,7.936,16769.28
14294.272,10.24,16768.512
14280.448,10.496,16768.0
14316.032,11.008,16768.0
14336.512,11.264,16767.232
14333.44,10.496,16765.696
14330.88,10.24,16766.208
14347.008,9.984,16766.976
14382.336,7.168,16769.024
14383.616,6.912,16770.048
14360.832,8.192,16771.328
14343.936,8.704,16768.512
14348.032,8.448,16768.0
14378.496,8.192,16770.304
14416.384,9.472,16766.976
14441.216,8.96,16766.72
14457.344,8.96,16765.696
14461.44,8.96,16766.464
14441.728,7.68,16770.56
14451.712,8.192,16771.584
14463.232,10.496,16770.304
14472.96,9.984,16770.048
14547.712,8.448,16768.512
14586.624,8.448,16767.488
14512.896,8.96,16768.768
14458.368,10.752,16769.28
14436.864,9.216,16767.488
14477.824,6.144,16767.744
14475.008,7.68,16766.976
14436.864,9.216,16766.208
14449.408,7.936,16767.232
14470.144,7.168,16766.208
14454.016,7.68,16765.952
14393.344,5.888,16766.976
14393.6,8.192,16768.0
14397.44,8.448,16768.768
14391.04,8.192,16765.952
14336.768,9.728,16766.464
14279.68,12.288,16768.256
14279.424,11.008,16769.28
14313.984,8.192,16768.256
14329.856,7.68,16769.024
14358.784,8.448,16769.024
14371.84,6.912,16769.536
14349.568,6.656,16768.0
14331.904,8.96,16766.208
14323.968,8.96,16765.44
14348.288,7.936,16765.696
14402.048,5.888,16766.464
14380.032,5.376,16767.488
14331.648,5.888,16768.512
14342.144,6.656,16769.792
14363.648,6.144,16767.744
14382.336,6.912,16766.208
14343.936,8.96,16766.464
14311.168,6.4,16768.256
14322.944,6.4,16768.0
14364.672,9.984,16765.952
14362.624,11.008,16767.488
14338.048,11.008,16769.024
14292.736,10.752,16766.464
14244.864,10.496,16764.928
14269.696,11.008,16765.696
14378.496,8.704,16768.512
14436.352,6.144,16768.256
14412.032,6.4,16767.488
14397.44,8.704,16768.512
14413.056,10.24,16768.0
14427.904,9.728,16766.72
14419.456,8.704,16768.512
14418.176,8.704,16770.56
14437.888,8.96,16770.56
14484.992,9.984,16769.024
14443.52,9.472,16766.976
14350.336,8.704,16766.72
14351.872,7.68,16768.512
14434.304,9.984,16768.768
14458.624,9.984,16768.256
14428.416,8.448,16766.976
14405.376,7.424,16766.72
14384.128,8.96,16766.976
14368.768,9.216,16766.464
14324.992,7.424,16765.696
14317.056,6.144,16768.0
14304.512,8.96,16768.0
14322.944,9.728,16766.976
14355.968,9.216,16769.024
14337.28,11.008,16769.28
14330.368,9.216,16768.0
14355.456,9.216,16769.792
14368.768,10.752,16770.56
14324.992,11.264,16769.024
14287.872,9.216,16768.768
14305.024,9.472,16768.0
14267.904,9.472,16768.0
14190.336,8.96,16767.488
14246.4,12.288,16767.488
14413.056,11.52,16767.488
14604.288,9.984,16766.72
14895.36,9.216,16767.488
15180.288,9.728,16768.512
15346.688,8.192,16769.28
15250.688,6.4,16769.024
14899.712,5.888,16769.024
14516.736,6.4,16768.256
14380.8,6.144,16767.488
14412.8,7.936,16767.744
14360.064,10.496,16767.744
14318.592,10.752,16766.976
14357.504,8.96,16769.792
14258.688,8.704,16767.232
14208.512,9.216,16766.464
14272.512,10.24,16765.952
14336.256,10.496,16768.256
14341.12,10.752,16767.744
14280.704,8.192,16766.208
14286.08,7.936,16767.488
14311.424,8.96,16768.768
14326.784,8.704,16768.768
14335.232,9.472,16768.512
14285.568,8.448,16768.256
14272.0,5.888,16767.488
14287.104,7.168,16766.976
14309.376,7.424,16766.72
14368.768,6.144,16766.976
14370.048,6.912,16766.208
14375.168,7.68,16766.72
14390.016,8.704,16766.72
14388.736,7.936,16768.0
14397.184,9.216,16771.072
14395.136,11.264,16770.048
14352.64,7.68,16768.256
14344.192,3.84,16767.232
14403.072,6.912,16767.488
14509.824,7.936,16768.256
14500.864,8.704,16768.512
14439.424,8.704,16766.72
14452.992,5.888,16764.416
14492.928,5.12,16765.952
14540.8,7.68,16768.0
14555.904,8.448,16767.744
14513.664,9.472,16765.952
14444.032,7.68,16767.232
14417.664,7.168,16768.768
14410.496,7.168,16766.72
14423.552,7.168,16764.416
14463.744,8.704,16766.464
14460.672,8.96,16766.976
14383.872,7.68,16766.72
14340.096,7.168,16767.232
14362.368,7.68,16766.976
14370.304,7.936,16767.488
14336.768,7.424,16766.464
14320.64,9.472,16765.44
14338.56,8.192,16766.72
14336.512,7.68,16768.512
14320.64,9.472,16767.488
14338.048,8.704,16767.232
14370.304,8.448,16766.976
14379.52,8.96,16768.0
14383.104,7.424,16768.512
14401.024,8.192,16766.72
14394.624,7.68,16767.232
14411.52,7.68,16767.744
14397.184,8.192,16767.488
14379.776,7.168,16767.744
14385.664,8.192,16768.256
14363.648,8.192,16769.536
14352.64,8.448,16768.768
14353.92,7.68,16767.232
14378.24,10.24,16766.208
14381.056,9.472,16766.464
14355.712,8.704,16769.024
14368.512,10.752,16768.512
14406.656,9.216,16764.16
14418.176,5.632,16764.16
14427.392,6.912,16766.72
14430.976,7.936,16765.952
14419.2,6.656,16764.672
14418.432,6.912,16764.672
14438.656,9.984,16764.672
14464.0,9.984,16766.208
14477.312,10.24,16766.208
14489.344,10.496,16765.184
14496.512,9.472,16765.44
14501.376,9.728,16767.488
14496.512,8.704,16767.232
14498.304,10.24,16767.232
14481.664,12.544,16769.024
14448.64,9.216,16770.304
14448.896,6.656,16768.0
14471.424,6.912,16764.928
14496.768,8.192,16766.208
14485.76,6.912,16766.976
14474.24,7.424,16766.976
14484.736,8.96,16767.744
14503.168,8.192,16766.208
14499.072,7.936,16766.464
14474.24,7.68,16766.976
14454.272,8.192,16767.744
14437.12,9.472,16766.976
14402.56,8.448,16767.744
14360.832,7.424,16769.024
14346.496,11.776,16768.256
14343.936,12.032,16768.0
14348.8,9.472,16767.488
14380.032,8.704,16768.0
14382.592,6.4,16767.232
14408.192,6.4,16767.488
14419.968,8.704,16766.208
14380.544,9.216,16766.976
14344.192,8.96,16768.0
14369.792,7.936,16768.768
14350.08,9.216,16769.536
14275.072,7.936,16767.744
14344.448,7.168,16766.72
14506.752,7.68,16765.952
14652.928,10.752,16765.696
14796.288,10.752,16768.256
15034.624,9.984,16766.976
15153.664,7.936,16767.232
14980.096,6.656,16768.256
14707.456,6.912,16766.976
14504.96,7.168,16767.232
14447.104,8.96,16768.256
14468.096,5.376,16769.024
14411.776,6.656,16768.256
14406.144,8.192,16768.512
14457.856,6.656,16769.024
14415.36,7.424,16768.0
14332.672,8.448,16768.256
14331.392,9.728,16769.792
14343.68,8.448,16769.792
14398.976,8.448,16769.28
14447.36,8.448,16768.0
14487.808,8.192,16767.232
14462.976,8.192,16768.0
14357.504,6.656,16769.28
14338.048,6.4,16769.024
14396.672,6.4,16766.72
14493.696,5.888,16767.488
14465.024,5.632,16766.976
14364.928,6.144,16766.72
14329.344,7.936,16767.488
14323.712,8.96,16769.536
14354.944,8.704,16770.048
14416.896,7.68,16769.28
14507.264,7.68,16767.744
14554.88,6.912,16767.232
14487.552,8.704,16767.744
14403.328,9.728,16767.744
14445.312,8.192,16766.464
14487.04,8.448,16767.488
14515.968,7.936,16768.0
14527.488,8.96,16767.744
14574.592,8.704,16766.208
14581.76,9.472,16764.672
14586.624,9.472,16765.952
14630.4,7.68,16765.952
14632.448,7.168,16767.488
14625.792,5.12,16768.512
14633.728,6.4,16766.208
14624.768,6.912,16765.696
14544.384,6.4,16765.952
14487.552,7.168,16764.672
14460.928,7.936,16766.208
14484.736,7.936,16767.744
14497.792,8.704,16768.0
14468.864,9.472,16766.208
14431.232,8.192,16767.488
14385.92,6.912,16768.768
14422.784,5.888,16767.232
14467.328,8.448,16766.464
14442.24,8.704,16769.536
14405.888,9.216,16768.768
14377.728,7.68,16767.232
14396.16,8.192,16765.44
14416.64,8.192,16765.696
14445.824,6.144,16768.0
14460.16,3.072,16768.768
14497.536,3.84,16768.0
14530.048,6.4,16767.232
14507.008,6.912,16767.488
14465.024,7.168,16766.976
14507.776,7.424,16767.232
14517.76,8.704,16768.256
14449.152,8.704,16767.232
14429.184,10.24,16766.976
14425.856,9.472,16766.464
14437.632,6.912,16765.696
14456.32,5.888,16768.768
14436.864,6.4,16769.792
14412.544,8.192,16769.024
14396.672,9.472,16768.512
14447.36,10.24,16769.024
14503.936,9.216,16768.512
14496.768,9.984,16767.488
14488.832,9.216,16768.0
14506.496,8.448,16767.488
14470.656,9.472,16767.232
14487.04,8.448,16768.512
14587.904,8.448,16768.768
14556.928,9.728,16768.768
14471.424,11.264,16768.0
14432.256,10.752,16765.184
14458.624,7.424,16765.184
14443.264,8.448,16766.976
14472.96,8.448,16767.744
14519.04,6.4,16767.744
14517.76,7.68,16765.184
14552.576,8.448,16764.672
14613.76,7.424,16766.464
14598.4,8.704,16767.488
14500.352,9.216,16768.256
14518.272,9.728,16767.488
14511.104,8.704,16767.488
14498.304,5.888,16768.0
14519.04,6.144,16769.024
14594.048,9.472,16768.256
14658.304,11.776,16768.256
14600.448,7.936,16768.512
14525.696,6.656,16767.744
14523.136,7.936,16768.256
14506.24,8.704,16769.792
14489.6,8.192,16768.768
14469.12,9.216,16766.72
14420.992,10.752,16766.976
14412.032,10.24,16766.72
14400.256,9.216,16766.464
14404.096,8.704,16765.184
14404.608,9.728,16765.952
14423.808,11.008,16765.184
14464.512,7.936,16764.672
14484.736,7.68,16767.744
14524.416,9.216,16766.976
14496.256,8.704,16765.696
14408.704,6.912,16767.744
14435.072,7.68,16768.256
14561.024,9.216,16766.976
14717.184,9.216,16767.744
14892.8,8.704,16768.256
15072.256,8.704,16767.488
15242.24,7.68,16769.28
15192.832,6.656,16770.816
14972.16,7.168,16769.792
14771.968,7.168,16770.048
14557.44,7.424,16768.512
14505.728,6.144,16766.464
14494.72,5.632,16768.768
14477.312,5.888,16767.488
14455.808,6.912,16765.184
14399.488,7.168,16767.232
14395.904,8.96,16768.768
14403.072,8.704,16766.976
14423.04,7.168,16768.0
14430.464,5.376,16769.024
14431.744,5.632,16765.184
14454.272,6.656,16764.416
14478.336,7.936,16766.976
14465.28,8.96,16769.28
14474.752,9.216,16768.256
14511.104,7.424,16766.976
14476.8,7.936,16767.232
14448.896,6.912,16768.256
14448.64,5.888,16768.512
14441.472,6.4,16769.024
14471.936,8.96,16768.768
14492.16,10.24,16767.488
14509.824,10.24,16769.024
14507.008,7.424,16766.208
14485.76,5.888,16763.904
14486.272,7.68,16767.744
14574.08,8.96,16767.744
14603.776,9.216,16768.512
14588.672,7.424,16769.536
14575.872,5.888,16768.256
14553.344,6.4,16766.72
14557.952,7.424,16767.744
14617.6,8.704,16768.0
14625.536,8.448,16768.256
14612.224,8.448,16769.28
14563.072,9.216,16767.488
14545.152,10.496,16767.488
14582.528,8.96,16768.0
14612.992,8.192,16766.208
14595.072,7.68,16765.44
14555.904,7.68,16766.208
14535.68,7.936,16765.696
14469.888,7.68,16765.696
14451.2,6.912,16765.696
14470.656,7.424,16766.464
14436.096,7.424,16768.256
14448.64,5.888,16768.512
14493.696,6.912,16769.536
14505.472,7.68,16770.048
14503.68,8.704,16768.768
14463.488,9.984,16767.744
14450.176,10.496,16765.696
14465.28,10.24,16766.464
14476.288,8.96,16767.744
14499.072,7.68,16768.0
14442.496,5.888,16766.208
14428.672,7.424,16766.464
14492.416,9.472,16769.024
14497.536,10.496,16767.744
14406.144,7.936,16766.464
14369.28,7.936,16766.72
14448.896,8.704,16766.72
14505.984,6.656,16768.0
14497.024,7.168,16768.0
14446.08,6.4,16766.208
14370.56,7.936,16767.232
14353.92,6.4,16767.232
14397.696,6.656,16767.232
14447.36,9.728,16767.488
14431.232,10.496,16770.048
14415.36,8.704,16770.56
14415.36,6.4,16768.0
14438.912,5.888,16765.44
14419.712,6.912,16766.976
14427.392,10.496,16767.744
14445.568,11.264,16768.0
14458.112,9.984,16768.256
14463.488,11.776,16768.256
14448.64,9.984,16768.768
14437.888,8.192,16767.232
14438.4,8.192,16766.464
14438.656,8.192,16767.744
14422.272,8.192,16767.488
14443.52,8.448,16765.696
14486.272,8.448,16764.672
14439.936,7.68,16766.464
14409.984,8.448,16768.768
14405.376,9.728,16769.28
14409.728,10.496,16769.536
14480.896,6.656,16768.0
14499.84,4.864,16767.232
14510.592,6.4,16767.488
14503.68,7.68,16767.488
14511.104,9.728,16769.024
14546.432,11.52,16770.304
14497.536,11.008,16767.744
14433.28,10.496,16765.952
14441.216,9.728,16767.744
14487.808,10.496,16769.024
14514.176,9.728,16766.72
14465.024,8.448,16767.488
14447.104,8.192,16767.744
14448.896,9.728,16767.488
14430.208,9.472,16768.0
14415.872,8.192,16769.28
14403.584,7.68,16771.584
14405.888,8.704,16770.304
14403.072,7.424,16768.768
14401.792,7.936,16769.792
14436.352,8.96,16768.512
14428.416,8.448,16770.048
14368.512,9.472,16768.768
14344.192,10.496,16766.464
14381.568,9.472,16767.488
14410.752,9.472,16768.768
14424.576,8.448,16768.512
14374.912,5.376,16768.768
14342.144,6.4,16767.232
14475.52,7.68,16767.488
14604.544,7.68,16767.744
14755.84,10.496,16769.28
15002.368,9.728,16768.512
15212.288,7.936,16766.464
15237.376,6.912,16769.536
14971.136,7.68,16770.816
14686.208,9.472,16768.768
14550.784,7.936,16768.0
14514.176,7.68,16766.72
14478.08,8.704,16766.976
14411.52,9.472,16766.72
14378.496,9.728,16767.744
14377.472,9.984,16767.232
14367.232,9.216,16767.744
14386.176,8.96,16769.024
14386.176,8.192,16768.256
14405.632,5.12,16768.512
14398.208,7.168,16768.256
14383.36,8.96,16768.512
14392.32,7.168,16768.0
14375.68,7.936,16768.256
14388.48,11.264,16768.0
14412.032,8.192,16766.976
14404.096,7.936,16766.976
14437.632,9.216,16768.768
14442.24,7.936,16768.0
14430.464,8.96,16768.768
14423.296,9.472,16769.28
14412.8,8.704,16768.256
14441.216,9.984,16770.56
14472.96,8.192,16771.072
14475.776,5.632,16769.536
14445.056,7.168,16767.488
14404.608,7.936,16766.976
14398.464,7.168,16769.28
14447.872,7.936,16768.512
14518.016,9.472,16767.488
14539.52,9.728,16769.28
14529.28,9.216,16768.512
14564.608,6.912,16766.464
14587.648,7.424,16766.464
14587.392,7.68,16766.72
14565.376,8.192,16767.232
14550.528,7.936,16767.488
14571.008,8.96,16766.976
14567.168,8.96,16766.72
14576.896,8.704,16767.488
14597.888,10.752,16766.464
14535.424,11.008,16766.464
14490.88,11.008,16768.0
14486.528,10.752,16767.488
14459.136,10.752,16768.0
14405.888,8.96,16770.304
14382.592,8.96,16769.792
14401.28,10.496,16768.0
14434.304,10.496,16767.232
14455.552,8.192,16766.208
14443.008,8.192,16767.232
14423.808,7.936,16768.256
14464.256,7.424,16769.28
14485.504,6.912,16770.304
14466.56,6.912,16769.28
14430.72,7.168,16766.208
14434.304,9.216,16767.232
14454.272,10.496,16766.976
14384.896,11.008,16767.488
14381.312,9.472,16768.512
14415.616,9.472,16767.744
14431.488,9.472,16767.488
14452.48,8.192,16766.72
14480.64,8.704,16766.976
14499.328,7.68,16768.512
14438.912,6.912,16770.304
14392.576,7.936,16768.768
14393.088,11.264,16766.976
14415.616,12.288,16767.744
14437.632,9.728,16770.048
14464.256,6.912,16771.84
14477.312,8.96,16770.304
14450.432,10.496,16767.744
14425.6,9.984,16766.208
14429.184,8.96,16767.488
14454.016,8.704,16767.488
14477.824,8.192,16766.208
14470.912,7.936,16766.72
14461.696,8.96,16767.232
14482.688,8.448,16766.464
14497.024,7.424,16767.232
14485.76,7.936,16766.464
14513.664,8.192,16766.208
14531.072,9.728,16767.232
14496.768,9.984,16768.768
14427.392,9.728,16770.56
14440.704,9.728,16768.768
14503.68,9.216,16766.464
14529.792,8.704,16765.952
14474.496,9.984,16764.928
14441.216,8.704,16766.976
14459.392,7.68,16769.024
14486.784,7.424,16769.024
14501.632,8.96,16767.488
14520.064,11.008,16765.696
14555.392,10.752,16765.696
14552.064,11.52,16766.208
14513.92,10.752,16767.232
14505.984,9.984,16766.976
14617.856,9.984,16766.208
14640.64,10.24,16766.208
14523.392,7.168,16766.464
14519.552,7.936,16769.024
14574.848,9.472,16769.536
14584.576,7.68,16768.768
14561.792,8.96,16767.232
14562.304,9.728,16767.232
14561.024,10.496,16767.488
14533.12,8.96,16766.976
14501.632,7.424,16765.952
14502.912,8.96,16767.488
14493.696,8.448,16768.0
14464.768,7.424,16766.464
14415.104,8.192,16766.976
14439.424,9.984,16767.488
14438.144,10.496,16769.024
14415.616,12.032,16767.744
14436.608,11.52,16765.184
14501.888,9.216,16764.928
14456.576,7.936,16768.0
14451.2,7.936,16771.072
14413.312,9.472,16769.792
14376.96,8.704,16768.256
14444.544,8.192,16766.72
14580.224,8.192,16766.464
14765.312,7.424,16767.744
15015.168,8.448,16765.184
15273.472,10.496,16765.952
15404.8,9.728,16765.696
15230.464,7.168,16764.928
14887.168,7.168,16764.416
14623.744,7.936,16764.16
14541.568,8.192,16765.696
14530.304,7.424,16766.72
14498.304,7.936,16767.488
14437.376,6.144,16767.232
14407.936,6.144,16763.648
14426.368,6.912,16766.464
14436.608,6.656,16767.488
14467.84,4.352,16768.768
14511.36,5.632,16768.0
14494.464,7.168,16765.696
14477.312,11.264,16766.208
14537.472,10.752,16766.72
14541.312,9.728,16766.464
14515.968,9.984,16767.488
14461.184,9.728,16767.232
14444.8,7.168,16767.744
14430.72,6.912,16768.256
14469.632,7.424,16768.256
14548.224,9.216,16766.72
14528.768,11.264,16766.464
14476.288,8.96,16767.488
14502.656,9.216,16768.768
14524.416,9.472,16770.048
14529.792,8.704,16767.488
14522.368,9.984,16765.184
14516.736,10.496,16765.44
14557.184,9.216,16766.976
14582.016,8.448,16766.464
14592.256,8.192,16766.976
14640.896,8.96,16767.232
14708.224,8.96,16765.696
14766.592,9.216,16766.208
14757.888,8.704,16768.256
14684.672,8.192,16768.0
14644.224,7.424,16766.72
14647.04,6.144,16765.696
14673.408,7.168,16765.952
14668.544,7.936,16767.744
14610.688,6.144,16768.256
14583.296,7.168,16768.512
14601.472,9.984,16767.232
14615.808,9.472,16766.208
14584.576,9.216,16764.928
14566.656,6.144,16766.208
14560.768,5.376,16768.768
14574.592,7.936,16770.816
14559.744,8.192,16771.072
14542.336,8.448,16769.024
14539.008,9.216,16767.744
14546.688,9.216,16767.488
14556.928,7.424,16768.512
14580.224,7.68,16768.0
14570.496,6.912,16769.024
14579.968,6.656,16770.56
14607.104,8.192,16768.256
14607.616,7.936,16766.976
14552.832,5.376,16767.232
14543.104,7.168,16769.024
14568.704,7.68,16770.048
14600.96,7.424,16768.256
14580.224,7.68,16766.72
14557.184,6.912,16764.928
14546.944,6.4,16764.16
14569.984,6.912,16767.488
14568.704,10.24,16768.768
14541.824,8.192,16766.976
14539.008,6.912,16767.232
14575.104,6.4,16765.952
14570.752,6.4,16767.488
14550.016,7.424,16766.976
14554.368,6.912,16766.464
14582.016,8.704,16763.648
14569.728,10.24,16765.44
14537.216,8.448,16766.208
14577.92,7.424,16766.464
14646.272,6.656,16765.952
14607.104,5.376,16766.72
14578.176,6.912,16766.464
14575.616,8.96,16766.208
14588.416,10.752,16764.416
14588.928,10.24,16765.44
14562.048,8.192,16768.256
14520.064,9.216,16768.512
14518.784,11.008,16766.208
14545.664,8.192,16764.416
14536.704,6.912,16764.928
14529.28,8.192,16765.44
14524.672,8.704,16766.976
14567.168,8.192,16770.56
14606.336,6.912,16770.816
14631.68,5.632,16768.512
14685.696,7.168,16766.464
14680.064,7.936,16764.416
14647.04,6.656,16765.952
14620.672,6.144,16768.768
14607.872,8.448,16767.488
14646.784,8.192,16766.464
14653.952,7.424,16766.208
14648.064,6.144,16765.952
14640.128,7.68,16765.696
14634.752,8.96,16767.488
14665.216,8.704,16768.0
14642.176,6.912,16769.024
14604.032,6.144,16769.536
14602.24,6.4,16768.0
14579.968,7.424,16766.72
14546.944,8.192,16768.512
14541.056,7.936,16768.0
14538.496,7.424,16767.744
14558.464,7.424,16768.256
14563.584,8.96,16768.256
14558.976,7.936,16770.048
14546.432,6.144,16768.768
14475.008,7.424,16767.232
14498.304,7.936,16766.72
14609.408,7.424,16767.488
14737.664,7.936,16768.0
14952.704,7.936,16769.024
15244.8,7.168,16768.0
15463.424,8.448,16766.976
15423.232,9.216,16768.0
15120.128,8.704,16768.256
14812.928,8.448,16767.232
14596.352,8.192,16767.232
14582.784,6.912,16768.256
14574.592,7.936,16769.28
14502.912,9.728,16769.536
14493.696,10.752,16770.304
14494.976,9.984,16769.28
14530.304,8.96,16768.512
14551.552,9.216,16768.768
14512.64,8.448,16769.536
14566.4,7.424,16768.512
14580.48,7.424,16765.184
14522.368,8.96,16766.464
14514.688,10.752,16767.744
14509.824,12.288,16768.512
14492.672,9.472,16769.792
14475.776,7.424,16769.28
14478.592,8.704,16769.024
14499.328,9.472,16769.536
14505.984,8.704,16769.792
14528.768,8.448,16771.584
14582.016,8.192,16769.792
14588.672,8.704,16767.232
14551.04,6.912,16766.72
14538.24,8.448,16768.256
14574.08,10.24,16768.512
14615.808,9.216,16766.976
14649.088,9.472,16765.696
14640.64,8.96,16766.208
14651.136,8.96,16767.744
14615.808,9.216,16769.28
14616.832,6.4,16766.976
14671.104,3.072,16764.928
14710.784,5.12,16766.976
14754.56,8.192,16766.976
14795.52,8.704,16769.024
14728.704,9.216,16770.56
14683.648,11.008,16770.304
14709.248,11.264,16769.536
14695.168,10.496,16768.768
14660.608,9.472,16768.512
14637.056,8.704,16769.024
14620.672,7.936,16769.28
14617.6,8.704,16768.768
14593.536,8.704,16766.976
14604.288,9.984,16765.44
14598.912,9.984,16763.648
14561.28,7.68,16764.416
14530.304,8.192,16764.928
14532.352,8.448,16764.16
14537.472,9.216,16766.464
14547.712,8.704,16766.208
14539.776,7.424,16764.16
14553.6,6.912,16764.672
14581.76,5.888,16768.768
14578.432,5.12,16769.792
14552.064,8.192,16766.72
14532.352,9.472,16766.464
14533.376,9.984,16766.208
14531.072,8.704,16764.16
14512.64,7.68,16765.184
14473.216,7.424,16765.696
14486.784,8.192,16767.744
14544.384,6.912,16766.464
14557.952,5.888,16765.44
14541.312,6.912,16766.976
14558.208,6.912,16767.232
14559.744,8.704,16766.976
14556.416,9.728,16766.464
14558.72,8.704,16766.72
14598.4,8.704,16769.024
14566.4,10.24,16767.488
14525.696,10.496,16767.488
14551.04,10.24,16766.976
14571.008,8.96,16765.44
14555.648,9.472,16765.696
14563.072,10.752,16765.696
14578.944,10.752,16766.464
14558.208,9.216,16765.952
14564.096,9.728,16768.512
14550.016,9.728,16769.28
14519.296,9.984,16768.0
14556.672,9.728,16767.488
14587.392,7.68,16768.0
14563.84,8.448,16770.304
14532.608,8.704,16769.024
14532.352,8.192,16766.976
14572.544,8.96,16767.232
14626.048,8.704,16768.256
14626.048,8.192,16768.768
14596.864,9.984,16766.976
14607.616,8.448,16765.952
14562.304,6.4,16766.464
14588.16,7.936,16767.488
14664.448,9.728,16768.0
14675.712,7.424,16768.0
14638.592,5.632,16764.672
14620.416,6.912,16766.208
14637.056,8.192,16770.816
14677.504,8.448,16770.304
14648.576,8.192,16768.512
14609.152,8.704,16765.696
14571.776,8.192,16766.208
14517.76,7.68,16765.696
14511.104,8.96,16765.696
14488.576,8.448,16767.488
14492.928,8.448,16766.464
14507.264,9.472,16765.952
14503.936,10.24,16766.208
14521.856,10.496,16767.232
14536.448,8.704,16768.512
14495.744,7.168,16768.256
14482.944,7.68,16769.28
14486.016,8.96,16768.512
14494.72,8.192,16766.976
14486.016,7.168,16767.744
14474.24,7.424,16767.488
14465.536,8.96,16767.488
14503.936,10.24,16767.232
14635.264,8.96,16767.488
14733.312,7.68,16770.816
14892.288,8.704,16770.304
15178.752,9.472,16769.024
15388.672,7.68,16766.976
15392.256,5.632,16766.72
15095.552,7.936,16767.488
14773.248,8.192,16768.512
14578.944,6.4,16769.536
14540.8,4.608,16768.512
14531.328,4.352,16768.0
14507.52,6.912,16769.024
14471.68,8.448,16768.768
14460.672,7.424,16769.024
14494.464,6.144,16768.256
14467.84,6.912,16767.744
14473.728,6.912,16770.048
14528.512,7.936,16768.256
14452.992,7.936,16766.72
14446.08,6.912,16767.232
14444.544,7.168,16766.976
14428.928,6.656,16766.976
14460.416,6.4,16768.768
14479.872,8.192,16769.536
14447.872,9.216,16768.256
14432.512,8.192,16766.464
14447.616,8.704,16766.208
14468.352,7.936,16765.184
14471.168,8.96,16767.232
14492.928,8.704,16768.512
14517.504,7.424,16770.56
14525.952,8.192,16770.048
14503.424,7.68,16766.72
14506.24,5.376,16766.464
14529.792,5.632,16767.488
14555.136,5.632,16767.488
14571.264,6.4,16768.256
14582.784,7.424,16768.512
14618.88,5.632,16767.744
14650.624,6.4,16769.536
14670.592,7.68,16770.304
14664.704,7.936,16768.768
14636.544,8.704,16768.0
14620.672,9.472,16768.0
14640.384,9.216,16767.488
14665.472,8.96,16766.72
14686.72,9.984,16766.208
14678.016,8.96,16767.744
14654.976,7.424,16770.048
14606.848,7.68,16769.792
14558.976,9.472,16769.792
14563.328,10.496,16767.488
14581.76,9.216,16766.976
14518.528,9.216,16767.488
14467.584,7.936,16766.976
14473.472,6.4,16768.0
14487.808,7.424,16769.536
14487.552,8.192,16767.232
14481.408,8.448,16766.976
14472.704,8.448,16766.976
14466.816,7.168,16768.0
14482.944,8.448,16769.792
14491.648,7.936,16768.0
14492.416,8.192,16766.976
14527.488,9.728,16766.72
14530.816,10.24,16768.0
14487.808,9.984,16768.768
14452.992,8.192,16769.536
14461.952,8.448,16769.536
14528.0,8.448,16769.28
14561.28,7.68,16768.768
14553.856,6.656,16767.744
14509.312,5.376,16766.72
14454.016,6.912,16768.512
14459.904,6.912,16768.512
14504.96,7.424,16766.72
14539.008,8.96,16766.464
14537.984,6.656,16768.512
14504.96,6.912,16768.512
14484.992,7.68,16766.976
14511.616,6.144,16764.672
14542.336,9.216,16766.464
14522.368,11.52,16767.488
14509.312,10.752,16768.512
14513.92,9.728,16769.28
14548.736,7.424,16767.744
14565.632,8.448,16766.976
14559.488,8.96,16766.72
14560.0,10.24,16768.256
14516.736,9.984,16767.744
14496.256,8.704,16766.72
14523.904,9.216,16768.0
14497.536,7.424,16771.328
14534.912,9.472,16769.28
14556.16,10.496,16768.256
14583.808,8.96,16768.768
14588.16,6.656,16768.768
14569.472,6.656,16768.0
14585.344,8.704,16767.744
14646.784,6.4,16768.0
14669.824,6.4,16771.072
14638.08,8.192,16769.536
14575.36,9.472,16766.976
14607.36,11.264,16766.976
14683.648,10.496,16768.256
14731.008,7.68,16768.512
14670.08,8.96,16768.512
14593.28,10.752,16768.768
14547.968,9.472,16767.488
14480.128,9.472,16769.024
14441.216,9.728,16769.024
14456.064,7.424,16768.512
14471.168,6.656,16768.512
14451.712,7.936,16768.256
14436.352,9.216,16769.536
14459.648,10.24,16770.56
14500.352,8.704,16768.768
14515.2,7.424,16766.464
14504.704,9.984,16767.232
14473.472,11.264,16768.0
14465.024,9.472,16767.488
14486.016,9.984,16766.208
14504.704,12.032,16766.208
14504.704,11.008,16768.512
14571.264,6.656,16770.048
14650.624,5.12,16769.024
14857.216,6.144,16768.256
15146.24,7.168,16767.232
15397.632,8.192,16767.232
15507.2,8.704,16768.0
15250.432,8.448,16768.256
14882.816,7.936,16770.304
14614.784,9.984,16769.536
14486.528,11.264,16768.512
14533.632,12.544,16771.584
14545.664,10.24,16768.512
14490.368,9.472,16764.416
14478.848,11.264,16765.952
14464.0,11.264,16767.744
14459.136,10.496,16768.512
14460.16,9.728,16768.512
14468.864,9.216,16768.256
14488.064,6.656,16768.768
14488.576,8.704,16769.024
14482.688,11.776,16770.304
14513.152,10.752,16770.048
14535.68,9.984,16767.488
14516.224,10.496,16766.976
14514.944,7.424,16768.0
14496.256,5.376,16767.744
14487.296,5.888,16766.208
14546.944,7.68,16767.488
14567.424,9.472,16769.28
14522.624,10.496,16769.024
14500.864,11.008,16768.0
14522.112,7.68,16767.744
14520.064,6.4,16766.976
14507.008,5.888,16768.256
14543.616,6.4,16769.536
14574.08,7.68,16768.768
14561.28,7.936,16767.488
14552.064,8.192,16768.256
14592.0,7.168,16766.464
14631.68,7.936,16764.928
14684.928,8.192,16766.976
14716.416,9.216,16768.0
14742.272,8.704,16768.768
14776.576,8.96,16770.304
14710.272,10.496,16770.304
14648.832,8.96,16767.744
14656.768,7.168,16768.512
14655.488,7.424,16769.024
14630.4,7.68,16766.208
14628.864,8.192,16766.208
14584.576,7.424,16765.44
14543.872,10.24,16765.44
14529.28,11.264,16767.232
14513.92,8.96,16768.256
14507.776,8.704,16767.744
14522.88,10.496,16766.464
14513.152,11.776,16764.416
14518.784,11.776,16763.648
14528.256,10.24,16765.696
14506.24,10.496,16765.952
14500.864,11.264,16765.44
14506.24,11.264,16768.512
14519.552,10.752,16767.232
14522.112,9.984,16766.208
14506.24,8.96,16767.488
14501.888,6.912,16768.256
14543.872,8.96,16765.696
14557.44,8.96,16764.928
14559.488,7.168,16768.0
14592.0,7.68,16767.488
14516.992,8.704,16768.256
14477.568,8.192,16766.976
14512.384,7.168,16766.72
14511.36,7.424,16768.512
14485.504,9.984,16767.232
14486.784,9.216,16766.72
14506.752,7.68,16767.744
14575.36,6.912,16768.0
14587.904,7.68,16769.024
14510.08,8.448,16769.792
14490.112,8.96,16767.744
14541.824,9.472,16767.232
14576.128,9.728,16768.0
14550.528,8.448,16769.536
14524.672,8.192,16768.512
14516.736,9.472,16766.464
14547.2,8.96,16766.976
14559.744,6.656,16766.72
14562.304,8.448,16764.416
14577.152,9.728,16766.976
14590.976,9.984,16768.512
14664.704,8.448,16769.024
14716.672,7.936,16768.768
14673.664,8.448,16768.0
14626.304,9.216,16767.488
14604.8,8.704,16767.744
14605.312,7.424,16767.488
14628.096,9.216,16766.72
14654.976,11.008,16765.696
14657.28,9.216,16764.416
14584.32,8.96,16764.672
14518.784,9.984,16765.184
14509.056,9.984,16765.184
14507.264,11.776,16767.744
14497.28,10.24,16768.256
14496.768,9.984,16767.488
14500.096,8.704,16766.976
14505.216,8.448,16767.744
14515.2,10.24,16766.976
14505.216,8.704,16767.232
14481.152,7.68,16768.256
14505.472,8.704,16767.488
14545.152,9.472,16767.744
14531.584,7.424,16768.512
14470.912,9.472,16766.208
14377.728,9.472,16766.72
14392.064,7.424,16769.536
14564.352,7.936,16770.048
14758.912,8.192,16769.28
15022.08,7.68,16767.744
15318.016,6.4,16766.464
15521.28,7.424,16765.696
15570.176,8.96,16768.0
15238.4,7.424,16767.744
14529.024,7.936,16763.392
14530.56,7.168,16765.696
14550.528,7.424,16767.232
14498.048,6.912,16765.184
14463.488,4.352,16767.744
14461.952,6.656,16765.696
14476.8,9.216,16765.184
14476.544,10.496,16769.536
14466.56,8.96,16770.816
14490.112,7.168,16769.536
14512.64,6.912,16768.0
14496.512,7.168,16768.512
14484.736,6.4,16768.768
14491.136,5.12,16768.0
14504.448,5.888,16767.744
14520.064,6.4,16768.0
14510.592,8.192,16768.256
14519.552,8.192,16768.0
14500.096,6.656,16767.232
14480.384,8.448,16765.184
14493.696,8.96,16766.464
14515.456,7.936,16768.256
14510.592,6.912,16768.768
14517.504,5.888,16769.28
14550.016,5.12,16768.0
14565.376,5.376,16767.744
14585.856,6.656,16767.232
14624.0,6.912,16769.024
14614.528,8.704,16767.232
14621.184,10.24,16766.208
14680.832,8.96,16767.744
14676.736,7.168,16770.304
14664.448,6.912,16770.048
14686.208,7.424,16767.232
14685.952,7.424,16766.72
14705.152,7.424,16768.256
14717.952,8.448,16768.0
14694.656,6.912,16765.184
14660.096,6.4,16764.928
14623.232,6.4,16766.464
14626.816,7.936,16766.72
14623.232,8.192,16768.512
14592.0,6.656,16769.28
14579.712,5.376,16767.488
14570.24,7.68,16768.512
14556.928,7.68,16769.024
14554.368,7.936,16769.28
14548.224,8.96,16769.792
14556.16,8.192,16768.0
14514.688,7.168,16766.976
14506.496,8.704,16768.256
14538.496,9.472,16765.952
14539.008,8.704,16765.952
14540.544,10.24,16766.72
14473.472,10.496,16766.208
14448.384,9.216,16767.232
14495.488,8.448,16766.208
14525.184,10.496,16767.232
14510.336,9.728,16768.256
14466.048,7.936,16768.768
14462.976,8.192,16768.0
14517.504,7.424,16766.976
14511.36,7.168,16767.744
14500.352,7.68,16767.744
14541.568,8.192,16768.768
14577.408,9.472,16768.256
14670.336,8.448,16768.768
14700.032,8.192,16769.536
14566.912,8.192,16769.792
14483.968,7.424,16769.536
14512.384,6.144,16766.976
14555.904,6.912,16766.72
14555.904,6.656,16766.976
14562.048,7.168,16767.232
14594.048,7.68,16766.976
14628.352,8.192,16766.464
14648.832,11.008,16768.0
14654.464,9.728,16769.024
14656.0,9.728,16766.976
14636.544,9.984,16766.464
14636.032,9.216,16768.256
14646.528,9.728,16767.488
14589.44,7.936,16765.952
14533.12,6.912,16766.464
14523.904,6.4,16768.512
14509.568,8.192,16769.536
14519.552,7.936,16767.744
14543.36,7.424,16766.72
14523.136,7.936,16767.232
14520.576,8.192,16767.744
14521.344,7.168,16767.232
14514.432,4.864,16765.696
14519.04,4.864,16764.16
14524.672,6.656,16765.952
14531.072,7.936,16767.488
14516.48,7.168,16766.72
14492.928,6.912,16765.184
14527.744,7.68,16766.72
14509.056,8.96,16766.208
14432.256,9.728,16768.512
14465.024,7.424,16770.304
14637.056,6.912,16768.256
14800.384,5.888,16768.0
15084.8,6.656,16765.44
15402.496,7.936,16767.744
15555.072,8.704,16769.792
15526.912,8.96,16768.256
15206.4,8.96,16766.208
14798.592,7.68,16765.952
14562.56,9.472,16766.72
14537.472,11.264,16768.768
14598.144,11.52,16769.024
14585.344,8.96,16768.256
14523.904,8.704,16767.744
14490.624,10.752,16768.256
14487.808,9.728,16766.976
14540.288,7.936,16767.488
14576.896,7.68,16769.024
14560.768,7.68,16769.28
14545.152,7.936,16768.0
14553.088,9.728,16766.208
14594.816,9.216,16764.416
14599.424,9.216,16764.672
14601.472,9.472,16767.232
14640.64,7.68,16766.72
14650.368,7.68,16765.44
14614.016,9.728,16765.952
14571.52,9.984,16766.464
14513.152,9.472,16767.744
14570.24,9.984,16766.464
14657.024,9.216,16763.648
14663.424,9.728,16765.184
14651.648,9.984,16768.256
14627.84,11.264,16769.024
14623.744,8.704,16768.768
14648.32,7.424,16768.768
14629.888,8.704,16769.024
14671.872,9.728,16767.488
14720.768,8.192,16767.232
14760.192,8.192,16766.976
14733.824,9.472,16766.976
14712.576,9.984,16766.976
14717.44,11.52,16767.488
14731.008,11.008,16769.28
14789.632,9.984,16768.512
14836.992,8.704,16768.256
14762.496,9.216,16768.0
14712.576,7.936,16769.28
14726.144,6.656,16768.256
14656.0,10.24,16769.024
14658.304,10.24,16769.024
14665.216,8.96,16766.72
14632.96,9.216,16765.184
14593.792,8.704,16764.416
14554.624,7.68,16766.72
14597.12,7.424,16767.488
14647.808,6.912,16767.232
14570.752,7.936,16769.024
14484.224,8.96,16769.792
14439.68,6.912,16769.024
14508.032,8.704,16768.512
14599.168,9.984,16768.256
14595.84,7.168,16768.768
14562.304,7.424,16767.232
14548.736,8.448,16766.464
14546.688,8.448,16763.904
14544.64,6.912,16764.672
14564.352,6.4,16768.0
14557.184,8.96,16768.512
14543.616,9.728,16767.744
14541.824,8.448,16767.744
14490.624,7.936,16766.976
14502.912,9.472,16765.696
14540.544,10.24,16765.184
14574.08,8.704,16763.648
14560.768,8.448,16764.416
14592.0,8.96,16765.44
14550.528,8.192,16765.44
14489.6,6.656,16765.184
14563.84,7.936,16766.208
14596.608,7.168,16768.768
14600.96,5.632,16769.28
14585.6,6.656,16769.024
14575.36,11.52,16767.488
14626.048,12.288,16767.232
14606.336,9.728,16766.208
14580.224,8.192,16766.976
14620.416,7.936,16767.744
14605.824,9.216,16767.744
14533.632,8.448,16767.744
14487.296,8.96,16769.28
14476.544,8.448,16766.72
14487.04,8.96,16764.928
14463.744,8.448,16766.976
14428.672,8.448,16769.024
14451.712,9.984,16769.792
14442.24,11.008,16770.56
14418.688,10.496,16770.816
14440.704,8.448,16770.304
14447.36,8.704,16768.256
14448.128,8.704,16768.512
14413.568,7.168,16769.792
14387.2,7.168,16770.048
14404.096,8.192,16767.488
14424.832,7.424,16767.488
14417.92,5.888,16769.536
14388.48,7.168,16767.744
14467.072,8.704,16767.232
14616.832,7.168,16766.464
14737.152,8.192,16766.464
14980.864,8.96,16768.512
15223.552,8.192,16768.0
15251.456,9.472,16767.488
14991.36,9.984,16766.976
14737.92,7.936,16770.304
14549.76,5.376,16770.56
14490.624,3.584,16768.0
14503.424,5.632,16769.024
14430.464,7.936,16768.768
14443.52,8.192,16767.488
14384.384,8.192,16767.744
14312.192,7.424,16769.28
14316.288,6.656,16767.232
14324.992,7.936,16767.744
14372.608,10.496,16768.0
14398.208,10.24,16768.256
14414.336,11.264,16768.0
14424.576,11.008,16767.488
14430.208,8.96,16766.464
14452.992,7.168,16768.0
14457.6,7.168,16769.024
14452.48,9.472,16769.024
14364.416,9.216,16767.232
14375.424,8.192,16766.72
14407.68,8.448,16768.256
14431.744,7.936,16767.488
14422.016,7.168,16765.696
14405.888,8.192,16766.208
14377.216,7.68,16766.976
14429.184,6.912,16770.816
14476.8,7.424,16770.304
14541.056,9.216,16767.744
14581.504,7.936,16768.0
14593.28,7.424,16770.304
14525.184,8.192,16769.024
14516.736,7.168,16768.0
14605.824,6.4,16769.792
14590.72,7.936,16770.304
14576.128,9.216,16767.744
14558.464,9.216,16767.744
14539.264,7.936,16768.256
14596.864,7.168,16769.28
14637.824,7.424,16769.28
14653.952,8.192,16767.744
14602.24,7.68,16767.488
14549.248,6.656,16766.72
14512.384,5.376,16767.488
14422.272,4.864,16769.024
14459.392,6.656,16770.304
14503.68,8.704,16768.0
14455.04,9.216,16768.256
14415.104,8.96,16769.28
14439.936,8.704,16768.512
14424.32,7.424,16766.976
14425.6,6.144,16768.0
14464.256,6.4,16768.256
14441.472,6.4,16768.512
14426.368,6.144,16768.256
14436.096,6.144,16768.256
14407.424,7.424,16768.512
14418.944,6.656,16770.56
14432.0,5.376,16769.792
14440.704,7.168,16768.768
14460.672,7.68,16769.536
14448.64,7.424,16769.28
14449.152,7.168,16769.536
14426.88,6.656,16769.024
14406.656,7.424,16769.28
14466.816,7.936,16769.28
14495.744,9.216,16769.536
14509.312,8.192,16769.536
14489.344,8.96,16769.792
14485.504,11.776,16768.768
14487.04,11.008,16768.0
14497.536,9.984,16766.72
14524.672,9.728,16767.744
14511.36,9.728,16766.208
14524.672,7.424,16765.952
14562.816,6.912,16766.208
14515.2,8.448,16766.976
14488.064,9.728,16765.952
14495.488,10.496,16766.72
14507.008,8.704,16768.256
14522.368,7.936,16770.048
14538.496,8.704,16770.048
14526.72,8.704,16769.28
14479.104,7.68,16769.28
14475.776,8.704,16769.536
14428.672,8.192,16769.536
14416.64,6.4,16767.744
14419.456,8.192,16767.488
14430.72,9.216,16767.744
14452.736,8.192,16768.768
14455.296,5.376,16769.536
14430.208,5.632,16768.0
14363.392,6.4,16767.488
14325.248,6.912,16767.232
14385.664,9.984,16768.512
14414.848,10.496,16771.328
14422.528,10.24,16770.56
14372.352,9.984,16768.0
14379.52,8.448,16768.512
14465.28,6.912,16768.768
14653.44,6.912,16767.232
14957.568,6.656,16769.024
15172.864,7.168,16768.512
15262.208,8.192,16766.208
15185.152,8.448,16763.648
14937.856,9.216,16764.672
14672.896,10.496,16766.72
14522.112,9.984,16765.696
14557.696,9.216,16766.464
14539.008,9.728,16767.744
14400.0,9.728,16767.232
14347.008,8.704,16768.256
14388.224,8.704,16767.232
14468.096,7.68,16770.304
14371.072,9.984,16769.28
14329.6,8.192,16769.792
14388.736,6.4,16769.792
14421.76,8.448,16766.464
14360.32,9.984,16765.696
14324.224,10.496,16767.232
14329.6,10.24,16767.488
14360.32,9.984,16766.976
14400.768,7.424,16766.72
14454.528,8.448,16767.488
14468.608,8.192,16769.536
14447.872,6.4,16770.048
14466.304,7.168,16767.488
14421.76,7.68,16766.464
14390.272,8.96,16766.464
14439.936,9.216,16768.256
14507.264,8.448,16768.256
14539.264,9.984,16766.464
14531.328,10.496,16765.952
14513.408,9.472,16765.952
14446.592,8.448,16767.488
14408.448,8.448,16769.28
14436.864,6.912,16767.488
14473.984,9.984,16766.464
14534.4,12.032,16765.696
14592.768,11.264,16765.696
14594.816,8.192,16767.744
14588.16,6.144,16767.744
14580.224,8.704,16767.488
14600.704,10.496,16769.024
14608.384,9.984,16769.024
14535.168,11.776,16767.232
14486.272,11.776,16768.0
14522.368,8.448,16769.024
14510.336,7.936,16766.72
14509.056,9.984,16764.672
14508.544,9.472,16767.232
14410.752,9.472,16765.952
14362.88,9.984,16764.672
14385.664,9.472,16766.976
14386.944,9.472,16767.744
14376.96,7.68,16768.512
14342.912,7.936,16766.976
14316.288,7.424,16766.72
14392.576,8.192,16767.232
14426.368,8.704,16767.488
4724.992,1612.288,3772.672
4641.28,1430.272,3736.32
4550.656,1320.448,3745.792
4480.256,1454.848,3825.152
4465.664,1493.76,3858.432
4511.744,1307.392,3817.472
4552.96,1271.296,3820.544
4414.72,1722.112,4158.208
4524.544,1555.712,4085.504
4539.392,1609.984,4067.84
4474.624,1815.552,4135.168
4488.96,1791.744,4122.368
4570.112,1595.392,4051.968
4569.6,1622.272,4089.856
4499.712,1830.144,4203.008
4504.32,1809.664,4188.16
4594.176,1598.976,4050.688
4628.736,1599.232,4037.632
4566.272,1774.592,4148.992
4551.424,1725.184,4154.112
4631.04,1542.144,4086.272
4613.12,1563.136,4113.152
4482.56,1728.768,4201.984
4447.744,1699.584,4200.448
4531.456,1529.344,4099.328
4520.448,1550.336,4128.0
4403.456,1735.168,4246.784
4399.616,1715.2,4189.952
4497.664,1499.648,4016.896
4494.08,1488.384,4020.224
4376.32,1675.776,4176.64
4346.368,1656.32,4201.472
4460.032,1478.144,4108.032
4508.928,1521.92,4144.128
4415.744,1723.136,4244.992
4391.936,1687.04,4200.96
4491.264,1498.368,4040.192
4520.448,1529.344,4023.04
4439.296,1733.12,4198.912
4405.248,1720.064,4255.744
4484.352,1544.96,4106.752
4436.224,1633.28,3969.536
4275.712,1893.888,3877.12
4344.832,1880.576,3840.256
4637.44,1708.8,3933.952
4959.744,1903.872,4324.608
5258.752,2574.336,5030.144
5585.92,3158.016,5520.64
5831.168,3332.096,5758.208
5612.8,3300.864,5655.296
5084.928,2945.28,4843.264
4680.96,2234.112,4021.248
4601.344,1733.888,3761.92
4645.12,1718.784,3784.96
4543.232,1923.328,3863.04
4484.608,1932.288,3856.64
4576.512,1765.376,3794.688
4564.736,1784.832,3855.872
4417.28,1942.528,3975.424
4396.544,1888.0,3981.568
4487.936,1693.696,3915.008
4476.928,1727.488,3938.048
4372.224,1921.536,4027.392
4372.224,1884.416,3981.312
4479.232,1688.576,3871.488
4491.008,1730.048,3909.632
4402.176,1925.632,4053.504
4393.216,1884.16,4059.392
4493.568,1698.56,3963.648
4498.432,1735.68,3974.144
4403.2,1930.24,4078.848
4400.128,1915.904,4079.36
4503.552,1731.584,3987.712
4524.544,1784.064,3979.264
4419.84,1982.72,4066.048
4416.512,1935.616,4069.12
4527.104,1750.272,3970.56
4545.792,1814.016,4002.816
4461.056,2033.92,4100.608
4468.48,2018.048,4079.872
4592.128,1851.392,3956.736
4615.68,1904.896,3976.192
4517.12,2106.624,4118.528
4530.944,2101.76,4145.664
4634.112,1931.776,4054.272
4638.464,1985.024,4086.016
4560.64,2189.312,4188.672
4583.424,2176.512,4177.152
4706.048,2025.728,4103.424
4704.512,2070.528,4133.632
4612.864,2256.128,4221.696
4643.328,2230.272,4172.8
4766.208,2049.536,4061.696
4768.512,2078.72,4089.344
4659.968,2237.952,4138.752
4662.528,2167.04,4041.472
4732.16,1936.128,3910.656
4678.912,1915.648,3915.776
4543.232,2056.448,3986.688
4507.648,1972.224,3964.928
4581.12,1739.776,3857.408
4556.8,1733.12,3872.768
4460.544,1896.704,3995.648
4466.688,1837.824,3996.416
4531.968,1603.072,3944.704
4488.704,1613.568,3990.016
4385.536,1801.984,4054.272
4428.288,1767.936,4004.352
4565.504,1581.312,3932.16
4547.328,1611.52,4082.688
4398.336,1721.856,4063.744
4495.36,1527.808,3994.88
4473.344,1552.384,4031.488
4370.688,1737.728,4129.792
4390.656,1701.376,4131.328
4502.784,1527.552,4045.824
4509.184,1586.176,4030.464
4404.48,1774.592,4093.184
4408.576,1728.512,4087.04
4507.904,1531.136,4038.4
4510.72,1579.776,4089.856
4416.512,1780.736,4180.224
4424.192,1734.4,4136.448
4509.44,1531.392,4026.112
4500.736,1564.928,4029.952
4409.856,1754.112,4122.624
4426.752,1723.392,4104.96
4551.168,1558.272,4020.48
4548.608,1618.432,4043.776
4445.696,1815.04,4144.64
4442.624,1772.8,4129.28
4529.152,1577.984,4050.432
4521.728,1613.312,4080.896
4408.32,1792.768,4163.84
4410.624,1728.256,4176.384
4516.864,1549.312,4103.424
4512.256,1615.36,4096.768
4421.12,1798.144,4166.912
4442.624,1729.536,4150.528
4557.056,1540.608,4070.144
4563.456,1593.856,4112.64
4449.792,1788.672,4207.616
4452.608,1742.336,4186.112
4550.656,1547.008,4106.752
4534.528,1586.176,4148.992
4447.488,1773.824,4233.216
4455.168,1719.04,4204.032
4549.376,1521.408,4123.648
4537.6,1576.96,4142.592
4445.952,1778.688,4244.736
4462.08,1727.488,4259.584
4560.896,1532.672,4151.04
4565.504,1589.76,4103.68
4469.76,1770.752,4166.4
4477.952,1703.168,4129.28
4599.808,1595.136,4181.248
4493.824,1788.16,4260.096
4503.04,1728.768,4230.4
4612.096,1548.288,4141.824
4634.624,1622.784,4169.984
4561.664,1826.56,4279.04
4556.288,1763.328,4254.976
4636.16,1544.704,4176.64
4643.328,1575.68,4219.136
4544.768,1737.216,4339.2
4540.672,1669.632,4331.008
4642.048,1495.296,4227.584
4631.04,1563.648,4215.296
4489.472,1738.752,4304.896
4452.352,1662.208,4302.08
4526.848,1453.824,4198.4
4508.416,1485.312,4183.296
4416.512,1660.928,4278.528
4430.848,1613.568,4281.088
4528.896,1436.16,4225.024
4534.528,1500.928,4262.144
4426.752,1678.592,4340.736
4419.328,1600.0,4317.952
4535.552,1410.816,4220.416
4543.232,1480.192,4233.472
4443.136,1674.496,4322.816
4435.456,1599.488,4302.08
4529.408,1408.768,4230.4
4536.576,1479.936,4267.776
4441.088,1681.152,4354.304
4460.032,1636.352,4326.144
4559.616,1483.52,4183.04
4486.144,1600.256,4076.288
4350.976,1841.152,4039.936
4444.672,1795.072,4038.656
4723.2,1632.256,4186.624
5036.032,1931.776,4612.096
5338.112,2687.232,5211.392
5624.32,3203.584,5664.256
5768.704,3307.776,5905.92
5484.032,3219.712,5649.408
4996.352,2801.152,4762.368
4718.848,2100.736,4019.2
4731.904,1632.256,3891.712
4724.992,1651.2,3970.56
4585.472,1848.32,4049.408
4544.768,1831.936,4039.936
4610.304,1665.024,3966.208
4587.776,1704.192,4003.072
4489.984,1872.64,4102.4
4500.224,1795.328,4103.68
4595.2,1597.952,4064.512
4565.504,1646.336,4138.24
4466.688,1836.8,4250.112
4488.96,1794.56,4212.224
4583.68,1609.472,4088.064
4570.368,1656.576,4111.36
4489.216,1850.368,4227.84
4501.248,1797.888,4192.512
4614.656,1630.208,4095.232
4622.08,1701.888,4142.08
4526.592,1895.424,4250.368
4565.248,1853.184,4227.328
4667.648,1671.168,4183.808
4630.784,1730.56,4273.664
4497.92,1903.104,4353.792
4493.568,1833.216,4255.488
4620.032,1670.912,4123.392
4631.296,1764.352,4160.256
4549.888,1975.296,4270.592
4587.776,1924.096,4255.744
4704.0,1767.936,4209.92
4687.36,1847.296,4231.936
4604.416,2023.424,4279.808
4645.632,1962.752,4286.72
4769.28,1817.856,4232.192
4772.608,1914.368,4265.216
4701.184,2123.264,4353.28
4739.84,2081.024,4325.12
4842.752,1919.744,4276.736
4818.176,2005.248,4350.976
4694.272,2200.832,4457.472
4892.928,2002.176,4290.048
4912.64,2063.36,4238.592
4788.736,2205.44,4258.816
4765.44,2092.032,4194.816
4823.296,1864.96,4100.096
4753.152,1868.8,4093.184
4601.6,1986.816,4124.928
4595.712,1876.992,4101.376
4673.792,1667.84,4037.12
4624.128,1701.632,4083.712
4516.352,1845.504,4150.784
4537.344,1753.344,4113.92
4638.976,1556.992,4047.36
4617.216,1612.032,4112.896
4489.984,1779.456,4230.912
4485.888,1708.544,4219.392
4589.312,1538.048,4114.688
4574.72,1594.624,4130.816
4471.552,1763.328,4237.056
4473.344,1684.736,4230.4
4564.736,1499.392,4142.592
4556.544,1558.784,4158.464
4474.112,1731.84,4234.752
4523.776,1684.736,4190.464
4631.552,1536.512,4133.632
4603.904,1606.4,4200.96
4492.288,1768.192,4272.64
4501.76,1684.992,4221.952
4594.432,1507.072,4149.248
4557.568,1574.144,4205.312
4452.096,1750.528,4294.4
4480.256,1687.04,4237.568
4587.264,1520.128,4151.04
4565.504,1595.904,4184.064
4472.832,1781.76,4265.728
4490.752,1726.208,4249.344
4587.264,1563.392,4193.792
4569.088,1641.984,4201.472
4484.096,1811.456,4222.976
4537.344,1727.488,4187.904
4631.04,1555.968,4153.6
4560.896,1618.944,4217.088
4455.168,1784.32,4300.8
4515.84,1718.272,4251.136
4639.232,1561.856,4158.976
4619.52,1638.4,4199.68
4510.72,1795.584,4280.576
4518.656,1712.128,4252.416
4611.584,1542.4,4183.808
4597.504,1609.984,4220.16
4505.856,1778.944,4310.784
4527.616,1715.456,4292.352
4625.152,1550.592,4224.256
4612.352,1638.912,4230.656
4517.888,1805.312,4261.888
4537.088,1706.496,4228.096
4623.104,1529.6,4174.848
4596.992,1609.984,4239.872
4515.84,1788.16,4316.928
4563.2,1719.296,4280.32
4664.576,1555.712,4205.568
4644.352,1645.824,4229.376
4552.448,1828.864,4298.496
4572.16,1755.904,4261.376
4659.2,1598.72,4184.832
4634.624,1684.736,4206.848
4567.04,1858.56,4281.6
4631.808,1790.464,4264.704
4729.344,1634.816,4227.84
4688.64,1707.008,4282.88
4583.936,1843.712,4366.592
4621.056,1733.888,4226.048
4673.28,1629.44,4312.832
4547.584,1814.528,4402.688
4544.768,1736.96,4305.92
4617.216,1549.056,4180.992
4564.992,1602.816,4188.16
4458.496,1749.248,4291.072
4499.712,1671.424,4289.536
4604.16,1523.456,4244.224
4586.24,1620.224,4285.696
4477.952,1783.552,4349.184
4481.536,1686.272,4305.408
4561.152,1511.424,4218.88
4538.624,1596.672,4250.624
4456.96,1776.128,4351.488
4505.6,1707.52,4338.432
4594.944,1542.912,4273.664
4549.12,1627.648,4286.72
4439.04,1799.68,4304.896
4460.032,1712.896,4257.024
4570.368,1548.544,4195.072
4535.296,1648.128,4241.152
4384.0,1889.536,4239.36
4387.584,1910.528,4025.088
4564.992,1783.04,3858.944
4697.6,1872.64,4047.616
4862.208,2184.448,4527.872
5263.616,2598.4,5115.648
5689.088,3075.328,5598.72
5800.448,3524.352,6036.992
5485.312,3588.864,6014.72
5102.336,2920.704,5030.144
4873.984,2088.192,4029.696
4693.248,1863.68,3844.352
4577.28,1985.792,3998.976
4567.552,1935.36,4002.048
4613.888,1822.976,3916.288
4570.112,1907.968,3946.496
4476.928,2050.56,4035.328
4493.056,1943.808,4013.056
4587.008,1779.2,3980.288
4552.96,1860.608,4030.464
4437.76,2008.064,4123.136
4460.8,1912.064,4098.048
4556.8,1741.824,4050.176
4547.328,1835.52,4117.248
4462.592,2016.768,4184.32
4485.376,1936.64,4147.456
4589.568,1779.968,4078.08
4566.016,1873.152,4091.392
4465.408,2035.2,4180.992
4495.104,1956.864,4182.528
4582.144,1805.824,4139.264
4561.152,1905.92,4193.792
4480.0,2082.048,4244.48
4515.328,2002.432,4166.912
4620.544,1849.344,4064.512
4592.64,1939.712,4114.176
4500.736,2121.472,4219.904
4550.144,2071.552,4189.44
4665.856,1939.456,4118.016
4658.176,2043.392,4149.248
4566.528,2219.776,4215.296
4598.272,2142.976,4211.712
4690.176,1982.976,4173.312
4668.928,2082.304,4216.576
4598.272,2284.032,4290.048
4651.008,2237.952,4258.304
4769.28,2099.968,4200.704
4753.664,2204.672,4235.776
4660.48,2383.616,4306.176
4708.864,2318.592,4279.808
4824.832,2166.528,4225.28
4794.88,2252.8,4257.024
4684.544,2401.792,4281.856
4704.256,2289.92,4165.888
4787.712,2099.456,4033.792
4735.488,2146.048,4034.048
4614.656,2249.984,4090.112
4624.896,2114.304,4026.368
4690.688,1903.36,3936.256
4628.224,1956.096,3972.352
4526.848,2100.48,4048.64
4531.968,1971.968,4010.496
4605.696,1766.912,3964.672
4555.264,1828.608,4025.088
4438.272,1976.064,4128.512
4463.872,1875.712,4092.672
4568.064,1702.656,4016.384
4537.088,1776.384,4076.544
4442.624,1938.688,4179.456
4466.176,1858.048,4148.736
4546.56,1691.392,4061.184
4516.864,1772.544,4086.016
4435.968,1943.296,4169.472
4478.208,1869.568,4134.4
4570.88,1710.848,4049.664
4526.336,1785.856,4093.696
4419.072,1935.36,4183.296
4450.816,1850.368,4170.752
4549.888,1697.28,4098.048
4511.744,1785.344,4109.056
4426.496,1952.512,4159.488
4483.584,1870.336,4127.488
4583.68,1722.368,4081.408
4538.88,1814.016,4134.4
4430.592,1963.008,4197.376
4453.376,1867.776,4154.368
4535.552,1704.96,4114.432
4420.352,1971.2,4184.064
4472.576,1888.768,4153.088
4567.04,1731.072,4101.376
4523.264,1817.088,4148.48
4430.848,1976.064,4196.864
4479.488,1898.24,4129.024
4567.296,1738.24,4065.28
4516.096,1817.344,4127.488
4424.192,1977.088,4208.384
4470.272,1893.376,4180.992
4569.344,1742.848,4111.104
4545.28,1841.664,4134.4
4450.56,2000.384,4190.72
4491.008,1904.128,4150.784
4589.312,1737.216,4100.096
4550.144,1829.12,4152.576
4450.048,1980.16,4234.752
4484.096,1873.664,4196.608
4584.448,1722.88,4109.312
4548.864,1817.6,4135.424
4450.56,1971.968,4206.336
4487.68,1871.616,4158.976
4579.328,1708.544,4115.456
4533.248,1799.168,4180.736
4436.736,1954.048,4257.28
4477.44,1870.08,4210.944
4578.048,1722.368,4136.96
4540.16,1815.808,4166.656
4434.688,1956.864,4234.496
4454.144,1846.528,4176.384
4549.376,1693.696,4112.384
4534.016,1804.288,4180.224
4461.056,1981.44,4272.128
4520.192,1916.928,4218.368
4618.24,1785.856,4093.44
4600.32,1887.488,4102.144
4508.16,2029.568,4178.944
4539.648,1920.512,4159.232
4646.656,1773.824,4134.4
4617.984,1884.928,4185.344
4509.44,2021.888,4268.8
4555.776,1904.64,4250.88
4668.16,1738.496,4204.544
4627.456,1818.624,4231.168
4532.48,1977.088,4262.912
4568.32,1888.768,4191.232
4638.464,1725.44,4145.92
4560.64,1804.032,4197.12
4436.992,1943.296,4270.592
4461.312,1836.032,4237.824
4539.904,1672.96,4155.648
4489.472,1761.28,4185.088
4393.472,1911.808,4241.408
4433.664,1804.8,4209.92
4513.792,1647.616,4155.392
4469.504,1751.808,4201.728
4391.168,1920.512,4276.48
4450.048,1842.432,4226.816
4540.416,1705.216,4151.552
4500.48,1811.712,4197.632
4402.944,1955.84,4257.536
4423.424,1845.248,4211.2
4509.952,1695.488,4141.312
4478.72,1798.144,4180.992
4382.464,1950.464,4243.2
4386.304,1889.792,4146.688
4416.768,1831.168,3952.384
4411.392,1993.728,3905.792
4459.264,2162.688,4027.904
4739.584,2131.456,4246.016
5224.448,2341.376,4702.976
5579.776,3084.544,5323.52
5734.144,3750.144,5832.448
5705.216,3740.928,5977.6
5382.912,3163.392,5301.248
4932.352,2562.304,4342.272
4594.688,2258.432,3912.96
4598.528,2056.192,3842.56
4683.264,1920.512,3772.672
4590.08,2073.088,3816.448
4452.352,2222.08,3928.832
4460.032,2071.552,3926.784
4532.992,1888.768,3883.008
4494.08,1976.32,3944.448
4417.024,2132.224,4035.072
4450.048,2035.712,4014.08
4535.552,1883.392,3968.0
4492.8,1985.536,4007.936
4388.096,2127.36,4073.472
4426.496,2019.84,4039.68
4521.984,1877.248,3983.872
4500.736,1992.704,4034.304
4414.464,2145.536,4126.208
4456.704,2050.048,4096.0
4544.512,1904.896,4051.712
4499.456,2019.84,4108.032
4427.776,2193.92,4153.344
4489.216,2100.992,4068.352
4583.936,1950.208,3983.104
4552.96,2068.992,4059.392
4473.6,2234.88,4141.312
4514.304,2135.04,4091.648
4598.784,1990.4,4030.72
4563.456,2111.232,4097.28
4481.536,2286.08,4174.08
4540.672,2211.328,4124.672
4651.264,2088.704,4055.04
4624.64,2216.96,4108.8
4550.656,2400.768,4180.48
4605.184,2319.104,4166.912
4695.04,2183.168,4140.032
4661.248,2306.048,4202.496
4595.712,2490.112,4244.736
4663.296,2407.168,4171.776
4773.12,2274.304,4102.912
4736.768,2393.6,4145.408
4647.936,2542.336,4204.544
4694.272,2421.248,4145.664
4779.264,2252.288,4068.864
4739.328,2342.4,4085.76
4629.504,2463.232,4084.736
4651.264,2314.752,3990.528
4705.024,2105.6,3890.176
4609.28,2144.0,3908.864
4487.936,2234.624,3982.592
4519.68,2099.968,3953.408
4598.016,1922.816,3915.008
4530.944,2001.92,3978.24
4426.752,2118.912,4050.432
4450.048,1977.088,4020.224
4522.496,1816.064,3960.32
4472.064,1917.696,4011.264
4384.768,2050.048,4109.312
4426.24,1930.496,4088.32
4512.256,1781.76,4020.48
4482.048,1901.056,4041.728
4405.76,2052.864,4077.312
4449.024,1947.136,4038.912
4521.472,1790.208,3991.552
4478.72,1889.536,4047.36
4392.448,2032.64,4134.144
4448.768,1923.072,4086.016
4540.928,1778.176,4022.528
4496.128,1898.752,4076.032
4419.072,2059.52,4132.352
4455.936,1943.808,4083.2
4525.824,1788.672,4022.528
4475.648,1891.84,4081.152
4395.52,2046.208,4155.136
4438.016,1940.992,4107.264
4531.456,1804.032,4040.192
4503.808,1926.656,4092.16
4419.328,2075.392,4144.384
4454.4,1958.912,4084.992
4524.032,1803.264,4033.792
4474.112,1910.016,4089.344
4380.16,2052.352,4167.68
4442.112,1953.28,4120.064
4543.488,1814.784,4043.008
4504.064,1920.768,4085.76
4409.088,2063.616,4162.56
4452.864,1954.304,4124.16
4553.216,1816.832,4071.936
4504.832,1926.144,4137.728
4407.296,2064.64,4204.8
4457.216,1939.2,4148.736
4564.48,1806.336,4075.52
4534.016,1936.64,4132.864
4441.088,2065.408,4204.288
4470.272,1931.52,4146.176
4548.352,1778.432,4088.576
4496.64,1890.048,4147.968
4402.176,2038.272,4205.056
4458.24,1925.632,4145.408
4556.288,1778.688,4084.736
4514.816,1892.352,4136.704
4435.456,2036.48,4213.248
4496.64,1925.888,4173.056
4522.752,1902.592,4169.728
4431.616,2049.28,4220.416
4474.368,1935.36,4159.232
4548.352,1783.296,4097.024
4500.48,1899.52,4142.08
4428.544,2047.232,4217.6
4480.768,1921.024,4158.976
4554.752,1763.584,4120.576
4503.04,1878.016,4198.4
4424.704,2036.736,4246.528
4580.352,1780.992,4102.656
4564.224,1916.16,4129.536
4493.824,2082.048,4198.656
4545.024,1977.6,4152.32
4578.048,1943.04,4190.208
4513.792,2096.896,4252.672
4579.072,1998.592,4203.008
4660.48,1854.208,4142.848
4600.832,1934.08,4216.064
4525.824,2062.08,4307.968
4579.328,1944.064,4267.264
4671.232,1801.728,4192.512
4615.68,1922.816,4217.344
4513.536,2065.152,4248.832
4530.944,1935.872,4195.584
4576.0,1764.096,4141.568
4496.896,1844.48,4186.624
4407.552,1968.896,4255.232
4472.32,1862.144,4221.184
4571.136,1748.48,4161.024
4525.312,1870.08,4205.312
4429.568,1989.632,4272.64
4477.952,1871.36,4225.28
4555.52,1729.024,4171.264
4492.8,1841.152,4215.552
4396.288,1970.688,4277.504
4447.232,1844.48,4235.52
4538.368,1714.176,4179.456
4491.776,1835.52,4223.488
4416.256,1970.688,4278.528
4473.856,1851.392,4229.888
4560.384,1726.976,4186.112
4498.176,1871.104,4203.52
4345.344,2067.712,4141.568
4357.632,1891.84,3899.904
4691.456,2035.712,4125.44
4934.144,2377.984,4588.032
5396.992,2789.632,5143.552
5812.224,3270.4,5596.928
5859.072,3701.76,5995.264
5500.16,3676.416,5861.888
5126.144,2932.224,4842.24
4876.8,2146.048,3977.984
4711.936,2004.48,3894.528
4626.176,2108.16,4009.984
4623.36,1993.984,3973.632
4645.376,1892.096,3919.872
4571.904,2013.184,3976.192
4472.576,2122.24,4047.616
4506.624,1969.664,4024.576
4583.936,1818.368,4015.104
4527.36,1943.808,4098.816
4440.32,2087.168,4166.4
4507.136,1974.528,4097.024
4607.744,1835.264,4025.088
4560.384,1958.912,4090.368
4485.632,2097.408,4166.656
4538.368,1970.432,4114.944
4610.816,1832.96,4058.88
4566.784,1958.144,4109.056
4491.52,2087.168,4204.288
4543.488,1973.248,4178.688
4630.784,1852.16,4120.32
4584.96,1983.232,4178.688
4505.088,2128.128,4221.952
4562.176,2000.128,4148.48
4647.68,1856.256,4115.456
4610.816,1993.984,4189.44
4537.6,2150.144,4274.176
4597.504,2047.488,4240.128
4683.008,1935.616,4182.528
4644.096,2071.808,4231.424
4578.304,2215.68,4272.64
4642.816,2100.736,4203.776
4746.496,1989.12,4166.656
4711.168,2142.72,4235.008
4642.816,2299.392,4334.848
4715.52,2202.112,4330.496
4824.832,2091.776,4292.096
4784.64,2238.208,4328.448
4708.864,2382.336,4358.4
4769.536,2249.216,4302.592
4871.936,2132.992,4266.752
4839.168,2270.976,4322.816
4754.176,2397.952,4375.552
4788.224,2259.456,4279.04
4845.568,2088.448,4147.968
4772.864,2163.2,4131.84
4670.976,2248.96,4140.032
4690.176,2075.904,4074.496
4749.568,1905.92,4014.592
4674.816,2001.664,4050.688
4553.472,2092.544,4118.528
4583.936,1927.424,4075.008
4638.976,1755.392,4026.112
4579.328,1859.84,4088.576
4490.752,1970.432,4162.56
4534.784,1813.504,4145.92
4609.792,1663.488,4105.728
4552.96,1784.32,4153.856
4463.104,1910.272,4206.08
4526.336,1775.872,4140.8
4616.704,1643.52,4128.768
4561.92,1777.152,4194.304
4466.688,1899.264,4253.696
4520.192,1762.048,4199.936
4609.28,1626.88,4148.992
4556.544,1746.688,4215.04
4478.208,1882.112,4280.576
4529.152,1768.192,4196.608
4613.888,1639.68,4136.96
4566.784,1767.68,4198.656
4482.048,1894.912,4275.2
4535.296,1754.624,4244.48
4611.328,1629.952,4188.16
4546.56,1764.608,4231.936
4467.2,1907.712,4279.296
4540.16,1783.808,4217.6
4627.2,1651.2,4182.272
4568.576,1780.992,4232.96
4488.704,1917.696,4294.656
4542.72,1784.576,4241.152
4618.24,1636.608,4194.56
4557.312,1755.136,4268.032
4475.136,1889.536,4333.056
4534.528,1765.632,4264.704
4627.968,1641.216,4194.048
4573.696,1771.008,4242.688
4490.496,1889.28,4313.344
4557.056,1754.368,4284.928
4642.048,1635.584,4241.664
4578.56,1763.84,4300.8
4513.28,1890.048,4342.528
4567.808,1751.04,4290.816
4634.88,1622.272,4236.288
4584.448,1758.72,4281.6
4511.744,1885.44,4341.248
4577.28,1755.136,4292.096
4656.64,1624.576,4235.264
4596.736,1755.648,4287.744
4519.68,1879.808,4340.736
4577.536,1739.52,4305.408
4646.912,1616.128,4256.768
4580.608,1743.104,4304.896
4516.864,1858.56,4364.8
4592.64,1728.768,4305.408
4676.608,1614.08,4235.008
4636.928,1764.864,4264.96
4576.512,1906.688,4320.768
4634.112,1772.8,4275.456
4700.16,1647.36,4240.128
4647.424,1788.928,4297.984
4591.104,1912.064,4364.8
4661.76,1785.344,4320.0
4738.048,1655.04,4272.128
4675.072,1758.72,4345.6
4606.72,1857.28,4421.632
4666.368,1714.432,4363.264
4723.968,1586.944,4315.648
4656.896,1729.792,4350.208
4568.576,1858.56,4372.224
4595.456,1701.632,4316.416
4646.912,1565.184,4286.208
4562.176,1686.272,4338.176
4478.464,1800.704,4384.512
4549.376,1661.952,4317.696
4619.008,1539.072,4299.52
4556.032,1682.688,4365.824
4488.448,1806.336,4410.624
4550.4,1672.192,4349.184
4624.128,1562.112,4278.784
4564.992,1709.312,4332.032
4485.12,1831.424,4389.888
4537.856,1696.0,4332.544
4615.936,1580.032,4292.096
4561.664,1718.784,4342.528
4504.32,1851.136,4382.72
4571.392,1725.952,4331.264
4626.176,1607.68,4270.848
4508.672,1766.912,4268.544
4357.888,1941.504,4151.296
4454.656,1831.68,3985.152
4665.856,1727.744,4048.896
4844.288,1985.024,4427.776
5127.936,2539.776,5029.12
5541.888,3077.12,5544.96
5809.152,3461.888,5896.96
5609.216,3682.816,6006.016
5177.6,3341.312,5330.432
4919.04,2461.184,4276.992
4799.744,1844.992,3889.664
4702.72,1870.592,4029.952
4611.328,1988.608,4104.192
4618.24,1887.232,4053.504
4645.376,1791.232,4026.624
4566.784,1924.608,4106.496
4497.152,2033.92,4166.4
4562.176,1882.88,4108.032
4609.792,1746.944,4079.104
4538.88,1884.928,4136.192
4478.72,2009.344,4212.224
4550.144,1870.848,4171.008
4616.96,1751.296,4134.144
4554.496,1899.52,4205.568
4498.688,2027.264,4257.28
4571.904,1897.728,4201.728
4647.424,1794.304,4148.992
4602.368,1943.808,4197.632
4529.92,2060.032,4271.104
4575.488,1913.344,4224.512
4645.632,1788.416,4180.992
4585.728,1937.92,4240.64
4523.264,2075.136,4286.976
4584.96,1943.296,4250.112
4652.544,1839.872,4209.152
4607.488,1997.824,4274.688
4567.808,2141.952,4317.184
4643.84,2029.056,4242.688
4717.312,1918.72,4206.592
4656.128,2070.016,4283.136
4580.096,2205.184,4347.136
4658.432,2085.888,4316.16
4758.016,2002.944,4272.384
4712.96,2164.48,4344.576
4660.736,2300.928,4400.128
4755.712,2188.288,4334.848
4862.208,2098.432,4303.104
4809.216,2249.984,4390.912
4717.312,2356.48,4464.384
4782.592,2222.592,4402.944
4865.28,2124.8,4319.488
4811.776,2258.176,4358.144
4739.072,2362.624,4359.424
4780.544,2190.848,4236.032
4821.248,2039.552,4133.376
4714.752,2135.04,4126.72
4616.192,2198.784,4164.864
4665.088,2018.56,4090.624
4706.56,1867.52,4026.624
4613.632,1977.088,4077.312
4524.032,2054.4,4125.44
4575.744,1886.976,4081.92
4643.584,1765.12,4055.808
4571.136,1896.704,4139.776
4489.216,1990.144,4201.728
4540.416,1827.584,4143.872
4600.576,1698.56,4117.248
4550.656,1830.912,4201.472
4477.952,1933.056,4271.872
4524.8,1791.488,4211.456
4587.008,1691.136,4138.24
4527.104,1841.408,4193.28
4449.536,1951.488,4240.128
4504.576,1791.744,4184.576
4566.272,1676.032,4153.6
4514.816,1830.144,4201.984
4448.768,1935.616,4253.696
4530.432,1808.896,4196.352
4598.016,1698.56,4152.576
4526.336,1836.032,4204.544
4462.848,1955.328,4247.04
4527.36,1821.184,4181.248
4591.616,1711.36,4140.288
4524.544,1859.328,4195.84
4446.72,1953.792,4260.864
4523.264,1812.736,4208.384
4594.688,1721.6,4163.584
4532.48,1885.952,4224.0
4460.8,1985.792,4266.24
4524.032,1820.672,4200.704
4593.152,1710.592,4158.464
4529.408,1867.776,4205.056
4466.944,1982.208,4274.432
4544.512,1837.824,4227.072
4621.568,1730.816,4195.584
4551.68,1875.2,4234.496
4464.64,1973.504,4263.168
4527.36,1820.16,4218.88
4608.512,1721.088,4183.552
4548.608,1872.896,4241.664
4487.936,1976.32,4297.472
4558.08,1821.952,4233.728
4622.848,1712.384,4186.368
4560.384,1865.728,4250.112
4489.984,1965.568,4309.76
4556.032,1808.64,4259.84
4629.248,1708.032,4205.312
4555.52,1847.552,4264.96
4484.864,1958.4,4314.368
4563.2,1818.112,4257.792
4620.288,1707.776,4226.304
4543.232,1857.28,4291.072
4486.144,1977.6,4333.312
4562.176,1836.8,4287.232
4621.568,1719.808,4239.616
4549.632,1852.672,4286.208
4484.096,1951.488,4297.728
4560.384,1809.408,4212.736
4636.672,1710.592,4199.424
4567.808,1865.984,4283.904
4495.616,1968.128,4331.52
4574.976,1821.952,4283.648
4658.432,1737.472,4240.384
4597.248,1905.408,4279.04
4545.792,2016.768,4292.608
4622.08,1863.168,4209.152
4694.272,1758.72,4180.736
4645.888,1914.112,4267.52
4595.712,2028.544,4340.224
4660.992,1874.688,4291.584
4719.36,1746.432,4272.64
4656.896,1868.8,4349.696
4588.288,1956.096,4379.392
4642.304,1803.776,4296.96
4691.968,1704.96,4248.32
4608.512,1854.72,4299.776
4512.0,1949.696,4350.208
4564.736,1794.56,4283.392
4612.864,1678.336,4247.808
4537.344,1820.928,4294.912
4479.488,1925.12,4330.496
4559.616,1779.968,4258.304
4619.52,1677.824,4225.024
4534.016,1817.344,4301.824
4456.96,1915.136,4353.28
4532.224,1768.448,4300.032
4597.76,1668.864,4274.432
4525.056,1817.6,4343.296
4460.032,1921.536,4392.704
4527.36,1777.408,4311.296
4588.544,1672.704,4245.248
4517.12,1824.768,4300.8
4454.144,1934.592,4329.984
4530.944,1798.656,4253.952
4552.448,1751.296,4163.584
4415.488,1983.488,4091.648
4399.616,2121.984,4071.68
4625.408,1977.088,4139.776
4956.16,1991.424,4406.016
5262.848,2574.848,4996.352
5556.48,3335.68,5588.48
5840.896,3643.136,5976.576
5782.784,3551.488,6060.032
5300.224,3196.672,5376.0
4855.04,2603.264,4374.272
4724.992,2057.728,3872.0
4767.488,1876.736,3843.84
4673.024,2043.392,3949.824
4545.024,2190.08,4017.408
4581.376,2048.0,3982.08
4632.832,1924.096,3986.176
4559.36,2048.0,4083.456
4486.144,2136.576,4132.608
4534.528,1973.76,4065.28
4591.616,1865.216,4023.296
4518.4,2015.744,4094.208
4449.792,2106.368,4168.448
4524.8,1949.44,4136.96
4596.736,1858.56,4109.568
4526.592,2017.28,4179.456
4478.976,2123.008,4227.584
4548.864,1970.688,4157.952
4610.304,1878.272,4108.032
4553.472,2045.952,4157.184
4509.44,2159.616,4220.16
4589.056,2013.696,4176.896
4635.392,1911.296,4154.88
4566.272,2063.36,4232.192
4502.016,2162.944,4265.728
4585.984,2019.84,4164.352
4660.224,1934.848,4117.76
4602.112,2108.16,4190.976
4543.232,2224.896,4278.784
4613.632,2081.024,4227.584
4696.32,2013.184,4179.968
4633.088,2184.448,4253.696
4580.864,2291.968,4316.672
4677.888,2166.528,4268.288
4769.792,2105.856,4237.824
4697.088,2278.656,4295.424
4647.68,2400.512,4339.456
4750.336,2273.536,4293.888
4825.6,2198.016,4259.584
4762.112,2366.72,4323.328
4707.584,2485.248,4358.656
4783.616,2336.512,4268.544
4852.736,2231.552,4229.12
4781.056,2364.416,4271.104
4708.864,2432.768,4265.216
4769.536,2245.376,4143.104
4810.752,2100.48,4037.632
4714.24,2214.4,4071.936
4614.4,2260.224,4105.472
4646.144,2046.464,4040.96
4692.736,1907.712,4025.6
4613.12,2027.52,4118.784
4521.472,2091.264,4164.352
4569.6,1907.712,4096.256
4624.64,1796.352,4058.112
4549.632,1940.224,4143.872
4482.56,2025.472,4205.312
4555.776,1854.976,4166.144
4625.92,1752.064,4150.784
4566.272,1917.696,4215.552
4514.816,2017.28,4242.176
4580.608,1854.208,4168.448
4625.664,1752.064,4136.704
4532.992,1892.864,4210.432
4458.24,1970.944,4272.64
4538.624,1819.392,4228.352
4608.256,1739.52,4189.952
4547.072,1902.848,4235.264
4506.368,1996.544,4258.816
4579.584,1838.336,4191.232
4632.832,1743.104,4174.08
4555.52,1895.68,4257.28
4485.632,1982.72,4317.184
4547.84,1825.792,4246.784
4603.904,1736.96,4189.44
4539.648,1899.776,4215.808
4491.52,2006.272,4250.368
4580.864,1864.448,4201.984
4653.568,1781.248,4195.584
4578.048,1936.64,4263.168
4498.944,2014.72,4295.68
4570.88,1861.632,4225.28
4644.608,1785.088,4187.648
4583.424,1946.112,4248.832
4516.608,2023.424,4287.488
4592.128,1866.752,4230.656
4653.312,1782.528,4230.4
4574.976,1935.872,4312.32
4515.072,2021.12,4336.64
4595.2,1860.864,4256.0
4661.76,1772.544,4207.872
4576.256,1926.656,4280.576
4521.728,2016.768,4338.432
4614.912,1862.912,4276.736
4664.576,1764.096,4252.16
4591.104,1922.048,4341.504
4532.48,2016.512,4369.152
4617.472,1863.424,4275.712
4676.096,1772.544,4214.016
4592.64,1924.864,4278.528
4531.968,2013.952,4327.68
4607.744,1852.672,4282.368
4672.768,1766.144,4262.4
4597.76,1928.448,4337.408
4530.944,2015.232,4357.888
4616.448,1858.304,4259.84
4678.912,1765.376,4219.392
4606.208,1930.752,4311.808
4545.536,2014.208,4353.024
4613.376,1842.176,4287.488
4668.672,1764.096,4261.376
4591.872,1928.192,4324.096
4535.552,2006.784,4345.088
4618.24,1847.04,4268.288
4677.376,1754.624,4251.136
4594.176,1901.568,4331.008
4527.36,1976.832,4377.088
4612.864,1823.232,4310.784
4697.344,1766.4,4262.144
4641.792,1956.608,4299.52
4595.968,2050.816,4328.704
4677.632,1888.256,4264.448
4742.912,1813.504,4247.552
4678.144,1975.296,4339.712
4636.928,2062.848,4399.36
4708.864,1908.224,4338.688
4743.424,1799.424,4300.8
4669.952,1934.336,4360.192
4625.408,2002.176,4379.136
4706.56,1827.328,4304.128
4751.616,1753.856,4282.624
4667.904,1927.168,4348.672
4595.2,2002.176,4389.888
4639.232,1719.552,4283.648
4545.28,1856.256,4338.688
4500.48,1930.752,4377.088
4597.76,1774.592,4330.752
4658.176,1706.752,4302.848
4580.096,1868.8,4364.544
4516.608,1942.528,4396.288
4589.824,1777.664,4319.744
4637.44,1699.84,4291.584
4556.288,1869.568,4355.072
4508.672,1962.24,4389.888
4585.216,1811.968,4328.192
4645.632,1733.888,4300.288
4566.272,1885.696,4389.12
4506.112,1968.128,4416.256
4568.832,1806.848,4315.904
4619.52,1756.672,4210.688
4487.168,1991.424,4157.44
4401.92,2115.328,4091.136
4583.68,1958.656,4062.72
4852.224,1926.656,4246.784
5117.696,2354.688,4756.224
5480.448,3042.816,5364.736
5885.184,3488.0,5771.008
5985.024,3643.904,6071.296
5553.408,3537.152,5807.872
5064.448,2938.368,4831.232
4838.656,2186.496,4045.312
4802.56,1921.024,3917.056
4723.456,2067.968,4023.552
4615.936,2172.672,4054.528
4649.216,2028.288,3988.992
4674.816,1934.08,3994.368
4577.28,2074.112,4098.304
4516.608,2131.2,4172.032
4598.784,1882.112,4082.432
4586.24,2047.488,4162.56
4529.408,2113.792,4217.088
4594.944,1927.424,4160.768
4652.032,1847.808,4148.736
4586.24,2024.448,4240.64
4544.512,2112.768,4308.992
4631.552,1953.28,4239.36
4674.56,1871.616,4189.44
4587.776,2036.992,4257.024
4527.36,2118.912,4292.352
4618.752,1966.336,4216.32
4689.92,1902.336,4186.624
4617.728,2073.344,4264.448
4574.208,2164.992,4324.608
4660.224,2018.304,4266.496
4728.832,1961.728,4231.424
4654.592,2129.92,4296.192
4594.176,2197.248,4324.608
4680.96,2046.72,4254.976
4749.056,1995.52,4218.624
4684.032,2170.624,4290.304
4659.456,2269.952,4355.584
4759.808,2141.184,4307.2
4814.592,2089.728,4307.968
4751.616,2283.52,4382.464
4721.664,2377.728,4400.384
4826.112,2236.416,4332.8
4897.024,2185.728,4313.6
4827.904,2359.808,4386.56
4787.2,2448.64,4420.096
4880.384,2296.576,4347.904
4935.168,2220.032,4322.56
4856.576,2382.848,4370.944
4787.2,2433.536,4347.904
4856.576,2226.432,4225.024
4895.232,2114.304,4152.576
4780.288,2231.808,4191.232
4688.128,2246.912,4183.808
4739.328,2029.568,4108.8
4771.84,1913.088,4093.184
4685.312,2036.736,4158.976
4604.416,2065.664,4204.032
4669.44,1872.128,4162.816
4716.288,1788.16,4144.64
4619.264,1933.056,4225.28
4560.128,1987.328,4265.728
4645.888,1816.32,4203.264
4705.28,1743.616,4174.592
4624.896,1901.312,4245.504
4559.104,1954.304,4293.376
4631.296,1774.08,4235.776
4675.584,1690.88,4239.872
4597.248,1854.208,4337.408
4545.792,1924.608,4369.152
4626.944,1763.584,4274.944
4690.176,1698.304,4205.568
4619.008,1851.392,4268.544
4559.616,1911.04,4346.112
4631.808,1749.504,4297.472
4677.888,1690.624,4273.664
4612.608,1856.512,4338.944
4568.576,1914.112,4361.216
4654.08,1748.736,4288.0
4698.112,1689.344,4249.856
4609.536,1855.488,4326.912
4562.176,1928.448,4367.872
4640.512,1765.12,4293.376
4693.248,1693.44,4278.784
4629.504,1870.848,4349.696
4584.96,1943.296,4381.44
4674.816,1775.872,4315.648
4721.408,1717.76,4267.008
4621.056,1872.384,4331.776
4567.552,1929.728,4382.464
4655.616,1768.96,4325.12
4706.048,1700.096,4304.384
4628.736,1860.864,4373.248
4589.824,1926.912,4411.904
4674.816,1751.808,4348.16
4717.312,1674.496,4313.856
4635.904,1841.92,4371.2
4602.88,1920.768,4388.608
4676.864,1742.336,4330.24
4720.896,1665.536,4307.456
4652.288,1841.92,4380.416
4609.536,1909.248,4407.808
4691.968,1733.12,4326.4
4745.728,1660.416,4295.424
4679.936,1839.104,4367.616
4627.968,1903.616,4404.736
4694.016,1714.688,4343.04
4736.256,1634.816,4323.072
4655.872,1798.4,4401.664
4609.024,1863.424,4431.104
4693.76,1701.12,4357.632
4733.44,1636.096,4350.464
4644.608,1795.84,4439.808
4604.672,1856.768,4461.824
4709.376,1681.152,4393.728
4770.816,1622.016,4363.776
4707.584,1810.688,4418.304
4672.512,1886.976,4438.272
4758.528,1719.296,4366.848
4811.264,1658.368,4361.472
4737.792,1851.136,4443.136
4709.376,1934.848,4466.688
4811.264,1763.84,4385.536
4840.448,1681.152,4385.024
4691.712,1835.008,4520.96
4793.6,1670.656,4463.872
4823.296,1598.208,4431.104
4727.552,1763.328,4504.576
4685.312,1838.848,4522.24
4755.456,1682.944,4435.456
4779.52,1623.04,4398.336
4675.072,1776.64,4434.944
4597.76,1799.168,4482.816
4670.464,1607.68,4440.832
4715.52,1549.568,4439.296
4633.856,1720.576,4508.672
4590.848,1781.248,4515.072
4672.512,1613.056,4425.216
4730.88,1567.744,4392.192
4653.568,1735.424,4471.552
4609.536,1790.464,4520.96
4691.968,1631.744,4460.032
4741.376,1585.152,4423.936
4661.504,1762.56,4477.44
4613.632,1821.44,4478.208
4688.128,1595.392,4370.176
4611.072,1790.208,4404.992
4518.912,1916.928,4305.664
4616.96,1786.88,4127.744
4772.608,1746.176,4187.136
4908.8,2015.232,4529.664
5213.184,2432.768,5053.696
5676.032,2883.328,5556.736
5939.712,3336.448,5945.856
5767.68,3651.328,6172.416
5389.824,3371.776,5632.256
5136.128,2510.592,4555.264
4961.024,1918.976,4058.368
4823.04,1932.032,4197.632
4764.672,1963.776,4261.888
4800.512,1805.568,4188.928
4783.104,1780.992,4151.552
4677.12,1945.344,4195.328
4626.432,1977.088,4250.88
4711.424,1798.4,4214.016
4760.32,1743.104,4220.16
4675.84,1913.088,4306.944
4613.888,1957.12,4355.584
4703.744,1783.04,4285.952
4750.08,1722.624,4268.288
4657.152,1886.208,4366.336
4620.288,1943.552,4411.136
4722.432,1790.208,4347.904
4775.424,1758.976,4329.216
4690.944,1941.504,4399.872
4648.448,1997.312,4434.432
4721.152,1817.6,4367.104
4763.136,1755.392,4368.384
4683.008,1928.192,4437.248
4641.024,1992.448,4428.544
4748.8,1846.272,4348.928
4817.408,1825.536,4421.632
4700.672,2073.6,4467.2
4787.968,1901.824,4415.744
4834.816,1860.864,4413.44
4757.76,2055.68,4478.72
4716.544,2117.632,4501.248
4823.552,1963.264,4453.376
4893.952,1941.76,4457.216
4824.832,2146.56,4547.328
4808.448,2231.296,4587.008
4913.152,2074.368,4518.912
4959.488,2024.448,4491.008
4884.224,2207.488,4554.24
4868.096,2280.96,4572.416
4985.344,2129.152,4497.92
5033.728,2089.984,4495.616
4937.472,2259.2,4564.48
4880.384,2295.296,4558.592
4966.4,2105.344,4430.592
4983.296,2017.792,4339.2
4849.92,2143.232,4352.768
4764.416,2147.328,4323.328
4832.512,1938.432,4215.552
4859.904,1856.768,4185.088
4743.936,1993.728,4272.64
4669.184,1994.752,4322.816
4734.976,1792.0,4261.888
4759.296,1721.856,4258.56
4669.184,1880.064,4349.44
4628.224,1921.536,4369.664
4732.672,1754.624,4287.488
4774.144,1700.608,4271.104
4669.184,1853.696,4354.816
4612.864,1885.184,4394.24
4688.64,1699.584,4321.28
4732.672,1655.808,4313.856
4652.544,1838.08,4390.144
4610.816,1872.64,4407.808
4703.232,1692.928,4343.808
4747.52,1656.064,4334.336
4645.888,1827.328,4411.904
4593.664,1878.272,4429.312
4688.384,1716.736,4346.368
4720.64,1669.632,4330.24
4612.352,1839.104,4408.832
4584.192,1894.656,4434.432
4702.464,1736.96,4357.376
4754.944,1701.376,4309.504
4645.888,1863.424,4378.624
4591.872,1900.288,4412.928
4681.728,1730.304,4335.616
4721.92,1694.72,4339.968
4655.872,1891.328,4412.928
4624.384,1947.136,4436.48
4693.504,1758.208,4353.792
4722.176,1697.28,4323.072
4629.248,1874.432,4395.52
4608.512,1935.872,4419.84
4715.52,1772.8,4348.672
4758.016,1740.288,4336.896
4661.248,1915.136,4409.088
4594.176,1940.48,4449.28
4680.704,1765.632,4386.048
4738.304,1735.168,4347.136
4662.784,1914.112,4400.64
4622.08,1939.456,4411.648
4706.816,1750.272,4341.504
4750.592,1720.32,4336.128
4663.552,1912.32,4414.72
4624.64,1958.656,4448.768
4719.104,1779.2,4387.328
4743.424,1726.464,4376.064
4646.656,1903.104,4445.696
4617.728,1946.368,4434.688
4700.928,1757.696,4348.416
4739.84,1719.04,4330.752
4666.112,1907.2,4412.928
4636.672,1955.072,4462.592
4716.8,1777.92,4399.104
4738.048,1735.424,4374.784
4649.216,1905.92,4448.256
4622.848,1942.528,4451.328
4713.472,1778.176,4377.344
4781.056,1775.616,4363.52
4718.592,1981.696,4420.096
4677.376,2019.584,4433.408
4761.344,1846.016,4348.416
4801.28,1811.968,4334.336
4732.16,1988.096,4423.936
4712.704,2031.36,4443.648
4790.016,1848.832,4379.904
4816.896,1775.104,4382.72
4743.936,1930.752,4477.696
4711.936,1961.984,4505.088
4785.92,1780.992,4423.68
4808.704,1751.808,4415.488
4702.976,1938.176,4470.784
4638.208,1969.664,4471.04
4693.504,1774.336,4385.28
4694.016,1700.608,4364.288
4597.248,1854.72,4450.048
4565.504,1890.304,4479.232
4667.904,1733.632,4401.92
4723.2,1718.272,4391.168
4635.904,1897.984,4474.88
4579.584,1914.88,4491.008
4648.704,1730.304,4399.104
4671.232,1694.208,4382.976
4582.4,1872.64,4457.472
4547.328,1905.664,4485.376
4650.496,1741.568,4409.344
4698.88,1722.368,4396.8
4617.472,1912.576,4450.304
4570.88,1952.256,4446.72
4638.464,1774.592,4345.856
4621.568,1792.256,4269.568
4498.176,2056.704,4212.48
4529.664,2122.752,4198.912
4791.296,1970.944,4281.088
5112.32,2118.912,4608.512
5408.512,2800.64,5251.328
5708.8,3470.848,5826.304
5940.992,3654.4,6176.768
5748.224,3513.344,6115.584
5244.928,3104.256,5283.072
4876.8,2478.592,4342.272
4819.712,2001.664,4012.288
4849.664,1925.376,4040.96
4719.104,2127.616,4119.808
4627.2,2192.896,4143.36
4692.992,1997.312,4078.336
4700.928,1926.912,4099.328
4592.384,2081.792,4211.456
4569.344,2124.8,4247.296
4665.6,1962.24,4192.768
4696.32,1928.96,4190.72
4614.144,2102.016,4264.448
4575.232,2129.664,4297.472
4666.88,1949.696,4239.104
4699.392,1912.064,4225.792
4596.224,2084.096,4302.848
4569.344,2124.8,4323.328
4666.368,1954.56,4272.128
4693.248,1933.568,4292.608
4603.648,2128.384,4360.192
4580.096,2161.92,4365.056
4685.568,1987.072,4282.112
4719.104,1964.032,4250.112
4634.88,2155.776,4319.232
4602.624,2193.408,4333.568
4696.832,2035.456,4265.984
4738.048,2022.4,4273.152
4665.344,2221.824,4354.816
4651.52,2277.888,4385.536
4750.592,2116.864,4326.656
4789.76,2099.2,4298.24
4709.376,2293.76,4354.816
4680.96,2340.352,4363.776
4781.824,2187.776,4308.224
4839.424,2193.152,4341.504
4771.84,2387.712,4446.464
4756.48,2434.816,4467.456
4870.144,2285.568,4383.232
4914.176,2281.728,4346.624
4826.624,2469.376,4417.28
4791.808,2500.608,4435.456
4882.688,2328.32,4358.144
4919.296,2300.16,4345.344
4827.136,2465.536,4391.936
4777.216,2457.6,4343.04
4851.968,2236.16,4211.712
4851.968,2159.104,4158.976
4724.736,2282.752,4214.016
4663.04,2254.08,4220.416
4741.12,2036.48,4147.456
4765.184,1992.192,4141.568
4665.6,2141.696,4227.328
4605.696,2119.168,4249.856
4678.4,1917.44,4189.952
4701.952,1878.784,4191.232
4601.6,2042.624,4281.6
4563.712,2047.488,4317.184
4648.448,1852.416,4259.584
4674.816,1823.488,4253.696
4596.992,2007.808,4312.832
4571.904,2028.032,4317.184
4658.176,1847.04,4245.76
4677.632,1820.928,4260.096
4584.96,1998.336,4344.832
4549.12,2019.072,4364.8
4646.4,1848.576,4283.648
4688.128,1832.704,4262.912
4600.832,2022.656,4331.52
4571.392,2052.096,4356.864
4650.752,1864.192,4297.472
4684.544,1855.744,4285.696
4610.304,2048.512,4343.552
4577.28,2058.496,4348.416
4658.944,1865.216,4274.432
4667.392,1836.8,4271.616
4567.552,2026.752,4356.096
4553.472,2066.432,4387.84
4662.784,1894.656,4307.968
4687.872,1873.664,4267.264
4590.848,2047.232,4332.288
4573.44,2067.712,4347.904
4670.72,1901.312,4271.36
4685.824,1874.944,4272.896
4583.68,2045.952,4366.336
4543.488,2058.496,4393.472
4637.696,1872.384,4314.624
4692.224,1862.144,4297.472
4614.656,2060.288,4363.52
4584.448,2088.192,4365.568
4685.056,1909.504,4297.216
4699.904,1878.784,4308.736
4588.544,2048.768,4378.624
4563.456,2061.824,4388.608
4669.696,1877.504,4325.376
4696.832,1860.352,4323.072
4605.952,2040.064,4401.408
4579.84,2052.864,4414.976
4665.856,1864.192,4339.456
4695.808,1844.224,4339.2
4607.232,2035.968,4397.824
4589.056,2063.872,4419.072
4688.384,1896.448,4353.28
4719.36,1888.768,4328.448
4617.216,2064.64,4392.96
4589.568,2081.536,4380.672
4705.28,1900.288,4294.912
4721.92,1862.144,4318.208
4614.144,2022.4,4415.488
4571.392,2039.04,4448.768
4660.992,1869.824,4381.44
4692.48,1864.704,4357.632
4612.864,2057.216,4400.64
4609.024,2078.976,4382.208
4715.776,1898.752,4321.024
4750.08,1895.936,4322.048
4663.552,2090.496,4386.56
4643.584,2110.208,4400.64
4724.224,1933.568,4335.104
4763.136,1929.984,4323.072
4716.8,2127.36,4407.808
4681.984,2139.392,4434.176
4749.568,1931.776,4376.32
4783.872,1885.696,4379.136
4700.16,2044.416,4451.84
4680.448,2063.616,4442.368
4774.4,1898.496,4368.896
4776.192,1872.64,4375.552
4639.744,2031.36,4445.184
4580.096,2034.944,4429.056
4643.584,1848.064,4331.52
4672.256,1829.632,4331.008
4588.288,2002.176,4419.584
4552.96,2010.88,4427.264
4653.824,1837.056,4355.584
4674.56,1827.84,4356.608
4574.976,2001.408,4434.688
4548.608,2004.992,4442.112
4646.656,1828.864,4379.904
4673.536,1828.352,4367.104
4579.584,2013.952,4434.432
4557.056,2027.008,4430.336
4652.8,1852.928,4356.352
4672.768,1854.976,4357.888
4579.328,2040.064,4433.92
4550.144,2051.328,4432.896
4632.32,1899.776,4321.536
4572.416,1946.624,4193.536
4459.776,2190.336,4135.168
4554.496,2225.408,4157.952
4852.992,2080.256,4303.872
5219.584,2332.416,4740.608
5540.608,3117.568,5404.672
5831.168,3728.64,5897.984
5956.864,3789.056,6125.824
5630.464,3507.2,5756.16
5113.6,3005.696,4817.152
4788.224,2434.816,4123.648
4804.352,2064.64,3971.584
4818.432,2030.592,4012.8
4664.32,2240.256,4108.032
4591.104,2270.72,4139.008
4674.816,2078.208,4087.296
4691.456,2048.0,3174.912
4543.744,2207.744,4235.776
4634.624,2017.536,4150.272
4655.616,1998.08,4150.528
4569.088,2181.632,4244.48
4557.568,2199.04,4270.848
4652.032,2019.584,4220.416
4669.952,2012.672,4251.136
4579.84,2205.44,4328.96
4567.296,2227.2,4326.4
4667.904,2053.12,4248.064
4688.128,2047.488,4228.864
4594.176,2228.992,4307.456
4576.512,2251.008,4317.184
4674.816,2078.976,4242.944
4695.04,2066.944,4258.56
4614.144,2265.344,4336.64
4593.664,2296.832,4357.376
4697.856,2126.848,4292.608
4720.64,2123.776,4286.976
4638.208,2320.64,4352.256
4635.904,2348.288,4339.712
4740.864,2185.984,4282.112
4686.848,2408.704,4376.832
4673.792,2425.856,4405.504
4781.824,2266.368,4339.968
4808.192,2280.96,4332.544
4742.144,2494.464,4395.776
4756.736,2535.936,4409.088
4869.632,2374.144,4348.672
4893.44,2378.24,4350.208
4812.8,2578.432,4419.072
4804.352,2597.888,4433.152
4898.56,2418.944,4357.376
4913.408,2414.336,4333.312
4806.656,2570.752,4361.984
4758.528,2528.0,4307.968
4820.48,2298.624,4178.688
